# t [s], xp [m], d [micron], d^2 [micron^2], mp [mg], Tp [K], Tg [K], ug [m/s], mtfd, htfd, Sm [kg/m3s], Sh [J/m3s], rho[kg/m3s], Mliquid
0,0.009,20,400,2.84829e-06,300,300.165,0.280997,0,0,0,0,679.979,3.76873e+09
2.90522e-06,0.00900082,20.0006,400.026,2.84775e-06,299.969,300.167,0.280999,-1.85714e-10,-10482.9,-2.03338e-06,0.00752616,680.005,3.76873e+09
5.81044e-06,0.00900163,19.9991,399.965,2.84721e-06,299.939,300.168,0.281001,-1.8533e-10,-10447.5,-2.02918e-06,0.0087595,680.031,3.76873e+09
8.71566e-06,0.00900245,19.9976,399.905,2.84667e-06,299.909,300.17,0.281003,-1.84949e-10,-10412.2,-2.025e-06,0.00998865,680.057,3.76873e+09
1.16209e-05,0.00900326,19.9961,399.844,2.84613e-06,299.878,300.172,0.281005,-1.84569e-10,-10377,-2.02085e-06,0.0112136,680.083,3.76873e+09
1.45261e-05,0.00900408,19.9946,399.784,2.8456e-06,299.848,300.174,0.281007,-1.84191e-10,-10342,-2.01671e-06,0.0124344,680.108,3.76873e+09
1.74313e-05,0.0090049,19.9931,399.724,2.84506e-06,299.818,300.176,0.281009,-1.83815e-10,-10307.1,-2.01259e-06,0.0136511,680.134,3.76873e+09
2.03365e-05,0.00900571,19.9916,399.664,2.84453e-06,299.788,300.178,0.281011,-1.8344e-10,-10272.3,-2.00849e-06,0.0148636,680.159,3.76873e+09
2.32418e-05,0.00900653,19.9901,399.604,2.844e-06,299.758,300.18,0.281013,-1.83068e-10,-10237.6,-2.00441e-06,0.016072,680.184,3.76873e+09
2.6147e-05,0.00900735,19.9886,399.544,2.84346e-06,299.729,300.182,0.281015,-1.82697e-10,-10203.1,-2.00035e-06,0.0172763,680.21,3.76873e+09
2.90522e-05,0.00900816,19.9871,399.485,2.84293e-06,299.699,300.183,0.281017,-1.82328e-10,-10168.7,-1.99631e-06,0.0184766,680.235,3.76873e+09
3.19574e-05,0.00900898,19.9856,399.425,2.8424e-06,299.669,300.185,0.281019,-1.8196e-10,-10134.4,-1.99228e-06,0.0196727,680.26,3.76873e+09
3.48626e-05,0.00900979,19.9841,399.366,2.84188e-06,299.64,300.187,0.281021,-1.81594e-10,-10100.2,-1.98828e-06,0.0208649,680.285,3.76873e+09
3.77679e-05,0.00901061,19.9827,399.307,2.84135e-06,299.611,300.189,0.281023,-1.81231e-10,-10066.2,-1.98429e-06,0.022053,680.31,3.76873e+09
4.06731e-05,0.00901143,19.9812,399.248,2.84082e-06,299.581,300.191,0.281025,-1.80868e-10,-10032.3,-1.98033e-06,0.0232371,680.335,3.76873e+09
4.35783e-05,0.00901224,19.9797,399.189,2.8403e-06,299.552,300.193,0.281027,-1.80508e-10,-9998.47,-1.97638e-06,0.0244171,680.359,3.76873e+09
4.64835e-05,0.00901306,19.9782,399.13,2.83977e-06,299.523,300.195,0.281029,-1.80149e-10,-9964.8,-1.97245e-06,0.0255932,680.384,3.76873e+09
4.93888e-05,0.00901387,19.9768,399.071,2.83925e-06,299.494,300.197,0.281031,-1.79792e-10,-9931.25,-1.96854e-06,0.0267654,680.409,3.76873e+09
5.2294e-05,0.00901469,19.9753,399.013,2.83873e-06,299.465,300.198,0.281033,-1.79436e-10,-9897.82,-1.96465e-06,0.0279336,680.433,3.76873e+09
5.51992e-05,0.00901551,19.9738,398.955,2.8382e-06,299.437,300.2,0.281035,-1.79082e-10,-9864.51,-1.96077e-06,0.0290978,680.457,3.76873e+09
5.81044e-05,0.00901632,19.9724,398.896,2.83768e-06,299.408,300.202,0.281037,-1.7873e-10,-9831.32,-1.95691e-06,0.0302582,680.482,3.76873e+09
6.10096e-05,0.00901714,19.9709,398.838,2.83716e-06,299.379,300.204,0.281039,-1.78379e-10,-9798.25,-1.95308e-06,0.0314146,680.506,3.76873e+09
6.39149e-05,0.00901796,19.9695,398.78,2.83665e-06,299.351,300.206,0.281041,-1.7803e-10,-9765.3,-1.94926e-06,0.0325671,680.53,3.76873e+09
6.68201e-05,0.00901877,19.968,398.722,2.83613e-06,299.323,300.208,0.281043,-1.77683e-10,-9732.47,-1.94545e-06,0.0337158,680.554,3.76873e+09
6.97253e-05,0.00901959,19.9666,398.665,2.83561e-06,299.294,300.21,0.281045,-1.77337e-10,-9699.76,-1.94167e-06,0.0348606,680.578,3.76873e+09
7.26305e-05,0.0090204,19.9651,398.607,2.8351e-06,299.266,300.212,0.281047,-1.76993e-10,-9667.16,-1.9379e-06,0.0360016,680.602,3.76873e+09
7.55357e-05,0.00902122,19.9637,398.549,2.83458e-06,299.238,300.213,0.281049,-1.76651e-10,-9634.68,-1.93415e-06,0.0371388,680.626,3.76873e+09
7.8441e-05,0.00902204,19.9623,398.492,2.83407e-06,299.21,300.215,0.281051,-1.7631e-10,-9602.32,-1.93042e-06,0.0382721,680.65,3.76873e+09
8.13462e-05,0.00902285,19.9608,398.435,2.83356e-06,299.182,300.217,0.281053,-1.7597e-10,-9570.07,-1.9267e-06,0.0394017,680.673,3.76873e+09
8.42514e-05,0.00902367,19.9594,398.378,2.83305e-06,299.154,300.219,0.281055,-1.75633e-10,-9537.94,-1.923e-06,0.0405274,680.697,3.76873e+09
8.71566e-05,0.00902448,19.958,398.321,2.83254e-06,299.127,300.221,0.281057,-1.75296e-10,-9505.92,-1.91932e-06,0.0416494,680.72,3.76873e+09
9.00618e-05,0.0090253,19.9565,398.264,2.83203e-06,299.099,300.223,0.281059,-1.74962e-10,-9474.02,-1.91566e-06,0.0427677,680.744,3.76873e+09
9.29671e-05,0.00902612,19.9551,398.207,2.83152e-06,299.072,300.225,0.281061,-1.74629e-10,-9442.23,-1.91201e-06,0.0438822,680.767,3.76873e+09
9.58723e-05,0.00902693,19.9537,398.15,2.83101e-06,299.044,300.227,0.281063,-1.74297e-10,-9410.55,-1.90838e-06,0.044993,680.79,3.76873e+09
9.87775e-05,0.00902775,19.9523,398.094,2.83051e-06,299.017,300.228,0.281065,-1.73967e-10,-9378.99,-1.90476e-06,0.0461001,680.813,3.76873e+09
0.000101683,0.00902857,19.9509,398.037,2.83e-06,298.99,300.23,0.281067,-1.73638e-10,-9347.54,-1.90117e-06,0.0472035,680.837,3.76873e+09
0.000104588,0.00902938,19.9495,397.981,2.8295e-06,298.962,300.232,0.281069,-1.73311e-10,-9316.2,-1.89758e-06,0.0483032,680.86,3.76873e+09
0.000107493,0.0090302,19.9481,397.925,2.82899e-06,298.935,300.234,0.281071,-1.72986e-10,-9284.97,-1.89402e-06,0.0493993,680.883,3.76873e+09
0.000110398,0.00903101,19.9467,397.869,2.82849e-06,298.908,300.236,0.281073,-1.72662e-10,-9253.86,-1.89047e-06,0.0504917,680.905,3.76873e+09
0.000113304,0.00903183,19.9453,397.813,2.82799e-06,298.881,300.238,0.281075,-1.72339e-10,-9222.85,-1.88694e-06,0.0515805,680.928,3.76873e+09
0.000116209,0.00903265,19.9439,397.757,2.82749e-06,298.855,300.24,0.281077,-1.72018e-10,-9191.95,-1.88342e-06,0.0526657,680.951,3.76873e+09
0.000119114,0.00903346,19.9425,397.702,2.82699e-06,298.828,300.242,0.281079,-1.71698e-10,-9161.17,-1.87992e-06,0.0537472,680.974,3.76873e+09
0.000122019,0.00903428,19.9411,397.646,2.82649e-06,298.801,300.243,0.281081,-1.7138e-10,-9130.49,-1.87644e-06,0.0548252,680.996,3.76873e+09
0.000124924,0.00903509,19.9397,397.591,2.82599e-06,298.775,300.245,0.281083,-1.71063e-10,-9099.92,-1.87297e-06,0.0558996,681.019,3.76873e+09
0.00012783,0.00903591,19.9383,397.535,2.82549e-06,298.748,300.247,0.281085,-1.70748e-10,-9069.46,-1.86952e-06,0.0569704,681.041,3.76873e+09
0.000130735,0.00903673,19.9369,397.48,2.825e-06,298.722,300.249,0.281087,-1.70434e-10,-9039.11,-1.86608e-06,0.0580377,681.063,3.76873e+09
0.00013364,0.00903754,19.9355,397.425,2.8245e-06,298.696,300.251,0.281089,-1.70122e-10,-9008.86,-1.86266e-06,0.0591015,681.086,3.76873e+09
0.000136545,0.00903836,19.9341,397.37,2.82401e-06,298.67,300.253,0.281091,-1.69811e-10,-8978.73,-1.85926e-06,0.0601617,681.108,3.76873e+09
0.000139451,0.00903918,19.9328,397.315,2.82352e-06,298.644,300.255,0.281093,-1.69501e-10,-8948.69,-1.85587e-06,0.0612184,681.13,3.76873e+09
0.000142356,0.00903999,19.9314,397.26,2.82302e-06,298.618,300.257,0.281095,-1.69193e-10,-8918.77,-1.85249e-06,0.0622717,681.152,3.76873e+09
0.000145261,0.00904081,19.93,397.206,2.82253e-06,298.592,300.258,0.281097,-1.68886e-10,-8888.95,-1.84913e-06,0.0633214,681.174,3.76873e+09
0.000148166,0.00904162,19.9287,397.151,2.82204e-06,298.566,300.26,0.281099,-1.6858e-10,-8859.23,-1.84579e-06,0.0643677,681.196,3.76873e+09
0.000151071,0.00904244,19.9273,397.097,2.82155e-06,298.54,300.262,0.281101,-1.68276e-10,-8829.62,-1.84246e-06,0.0654106,681.217,3.76873e+09
0.000153977,0.00904326,19.9259,397.042,2.82106e-06,298.514,300.264,0.281103,-1.67974e-10,-8800.11,-1.83914e-06,0.06645,681.239,3.76873e+09
0.000156882,0.00904407,19.9246,396.988,2.82057e-06,298.489,300.266,0.281105,-1.67672e-10,-8770.71,-1.83584e-06,0.0674859,681.261,3.76873e+09
0.000159787,0.00904489,19.9232,396.934,2.82009e-06,298.463,300.268,0.281107,-1.67372e-10,-8741.41,-1.83256e-06,0.0685185,681.282,3.76873e+09
0.000162692,0.0090457,19.9219,396.88,2.8196e-06,298.438,300.27,0.281109,-1.67074e-10,-8712.21,-1.82929e-06,0.0695476,681.304,3.76873e+09
0.000165598,0.00904652,19.9205,396.826,2.81912e-06,298.413,300.272,0.281111,-1.66776e-10,-8683.12,-1.82603e-06,0.0705734,681.325,3.76873e+09
0.000168503,0.00904734,19.9191,396.773,2.81863e-06,298.387,300.273,0.281113,-1.6648e-10,-8654.13,-1.82279e-06,0.0715958,681.347,3.76873e+09
0.000171408,0.00904815,19.9178,396.719,2.81815e-06,298.362,300.275,0.281115,-1.66186e-10,-8625.23,-1.81957e-06,0.0726149,681.368,3.76873e+09
0.000174313,0.00904897,19.9165,396.665,2.81766e-06,298.337,300.277,0.281117,-1.65892e-10,-8596.44,-1.81636e-06,0.0736305,681.389,3.76873e+09
0.000177218,0.00904979,19.9151,396.612,2.81718e-06,298.312,300.279,0.281119,-1.656e-10,-8567.75,-1.81316e-06,0.0746429,681.41,3.76873e+09
0.000180124,0.0090506,19.9138,396.559,2.8167e-06,298.287,300.281,0.281121,-1.6531e-10,-8539.16,-1.80998e-06,0.0756519,681.431,3.76873e+09
0.000183029,0.00905142,19.9124,396.505,2.81622e-06,298.263,300.283,0.281123,-1.6502e-10,-8510.68,-1.80681e-06,0.0766577,681.452,3.76873e+09
0.000185934,0.00905223,19.9111,396.452,2.81574e-06,298.238,300.285,0.281125,-1.64732e-10,-8482.29,-1.80365e-06,0.0776601,681.473,3.76873e+09
0.000188839,0.00905305,19.9098,396.399,2.81526e-06,298.213,300.287,0.281127,-1.64445e-10,-8453.99,-1.80051e-06,0.0786593,681.494,3.76873e+09
0.000191745,0.00905387,19.9084,396.346,2.81479e-06,298.189,300.288,0.281129,-1.6416e-10,-8425.8,-1.79739e-06,0.0796551,681.515,3.76873e+09
0.00019465,0.00905468,19.9071,396.293,2.81431e-06,298.164,300.29,0.28113,-1.63875e-10,-8397.71,-1.79427e-06,0.0806478,681.536,3.76873e+09
0.000197555,0.0090555,19.9058,396.241,2.81383e-06,298.14,300.292,0.281132,-1.63592e-10,-8369.71,-1.79117e-06,0.0816371,681.556,3.76873e+09
0.00020046,0.00905632,19.9045,396.188,2.81336e-06,298.115,300.294,0.281134,-1.63311e-10,-8341.81,-1.78809e-06,0.0826233,681.577,3.76873e+09
0.000203365,0.00905713,19.9032,396.136,2.81288e-06,298.091,300.296,0.281136,-1.6303e-10,-8314.01,-1.78502e-06,0.0836062,681.597,3.76873e+09
0.000206271,0.00905795,19.9018,396.083,2.81241e-06,298.067,300.298,0.281138,-1.62751e-10,-8286.31,-1.78196e-06,0.0845859,681.618,3.76873e+09
0.000209176,0.00905876,19.9005,396.031,2.81194e-06,298.043,300.3,0.28114,-1.62473e-10,-8258.7,-1.77892e-06,0.0855624,681.638,3.76873e+09
0.000212081,0.00905958,19.8992,395.979,2.81146e-06,298.019,300.302,0.281142,-1.62196e-10,-8231.18,-1.77588e-06,0.0865358,681.659,3.76873e+09
0.000214986,0.0090604,19.8979,395.927,2.81099e-06,297.995,300.303,0.281144,-1.6192e-10,-8203.77,-1.77287e-06,0.0875059,681.679,3.76873e+09
0.000217892,0.00906121,19.8966,395.875,2.81052e-06,297.971,300.305,0.281146,-1.61646e-10,-8176.44,-1.76986e-06,0.0884729,681.699,3.76873e+09
0.000220797,0.00906203,19.8953,395.823,2.81005e-06,297.947,300.307,0.281148,-1.61373e-10,-8149.22,-1.76687e-06,0.0894368,681.719,3.76873e+09
0.000223702,0.00906285,19.894,395.771,2.80958e-06,297.924,300.309,0.28115,-1.61101e-10,-8122.08,-1.76389e-06,0.0903975,681.739,3.76873e+09
0.000226607,0.00906366,19.8927,395.719,2.80912e-06,297.9,300.311,0.281152,-1.6083e-10,-8095.04,-1.76093e-06,0.0913551,681.759,3.76873e+09
0.000229512,0.00906448,19.8914,395.668,2.80865e-06,297.877,300.313,0.281154,-1.60561e-10,-8068.1,-1.75798e-06,0.0923095,681.779,3.76873e+09
0.000232418,0.00906529,19.8901,395.616,2.80818e-06,297.853,300.315,0.281156,-1.60292e-10,-8041.24,-1.75504e-06,0.0932609,681.799,3.76873e+09
0.000235323,0.00906611,19.8888,395.565,2.80772e-06,297.83,300.317,0.281158,-1.60025e-10,-8014.48,-1.75211e-06,0.0942092,681.819,3.76873e+09
0.000238228,0.00906693,19.8875,395.514,2.80725e-06,297.807,300.319,0.281161,-1.59759e-10,-7987.49,-1.7492e-06,0.0951783,681.838,3.76873e+09
0.000241133,0.00906774,19.8862,395.463,2.80679e-06,297.783,300.323,0.281166,-1.59495e-10,-7959.9,-1.74631e-06,0.0961955,681.858,3.76873e+09
0.000244039,0.00906856,19.885,395.411,2.80632e-06,297.76,300.327,0.28117,-1.59231e-10,-7932.4,-1.74342e-06,0.0972095,681.877,3.76873e+09
0.000246944,0.00906938,19.8837,395.36,2.80586e-06,297.737,300.33,0.281175,-1.58969e-10,-7905,-1.74055e-06,0.0982203,681.897,3.76873e+09
0.000249849,0.00907019,19.8824,395.31,2.8054e-06,297.714,300.334,0.281179,-1.58708e-10,-7877.69,-1.7377e-06,0.0992281,681.916,3.76873e+09
0.000252754,0.00907101,19.8811,395.259,2.80494e-06,297.691,300.338,0.281184,-1.58449e-10,-7850.47,-1.73485e-06,0.100233,681.936,3.76873e+09
0.000255659,0.00907182,19.8798,395.208,2.80448e-06,297.669,300.342,0.281188,-1.5819e-10,-7823.35,-1.73202e-06,0.101234,681.955,3.76873e+09
0.000258565,0.00907264,19.8786,395.157,2.80402e-06,297.646,300.346,0.281193,-1.57933e-10,-7796.32,-1.7292e-06,0.102233,681.974,3.76873e+09
0.00026147,0.00907346,19.8773,395.107,2.80356e-06,297.623,300.349,0.281197,-1.57676e-10,-7769.38,-1.7264e-06,0.103228,681.993,3.76873e+09
0.000264375,0.00907427,19.876,395.057,2.8031e-06,297.601,300.353,0.281202,-1.57421e-10,-7742.53,-1.7236e-06,0.10422,682.013,3.76873e+09
0.00026728,0.00907509,19.8748,395.006,2.80264e-06,297.578,300.357,0.281206,-1.57167e-10,-7715.77,-1.72082e-06,0.105209,682.032,3.76873e+09
0.000270186,0.00907591,19.8735,394.956,2.80219e-06,297.556,300.361,0.281211,-1.56914e-10,-7689.11,-1.71806e-06,0.106196,682.05,3.76873e+09
0.000273091,0.00907672,19.8722,394.906,2.80173e-06,297.533,300.365,0.281215,-1.56663e-10,-7662.53,-1.7153e-06,0.107179,682.069,3.76873e+09
0.000275996,0.00907754,19.871,394.856,2.80128e-06,297.511,300.368,0.28122,-1.56412e-10,-7636.04,-1.71256e-06,0.108159,682.088,3.76873e+09
0.000278901,0.00907835,19.8697,394.806,2.80082e-06,297.489,300.372,0.281224,-1.56163e-10,-7609.65,-1.70982e-06,0.109136,682.107,3.76873e+09
0.000281806,0.00907917,19.8685,394.756,2.80037e-06,297.467,300.376,0.281229,-1.55914e-10,-7583.34,-1.7071e-06,0.11011,682.126,3.76873e+09
0.000284712,0.00907999,19.8672,394.706,2.79992e-06,297.445,300.38,0.281233,-1.55667e-10,-7557.12,-1.7044e-06,0.111081,682.144,3.76873e+09
0.000287617,0.0090808,19.866,394.657,2.79946e-06,297.423,300.384,0.281238,-1.55421e-10,-7530.99,-1.7017e-06,0.112049,682.163,3.76873e+09
0.000290522,0.00908162,19.8647,394.607,2.79901e-06,297.401,300.387,0.281242,-1.55176e-10,-7504.95,-1.69902e-06,0.113014,682.181,3.76873e+09
0.000293427,0.00908244,19.8635,394.558,2.79856e-06,297.379,300.391,0.281247,-1.54932e-10,-7479,-1.69635e-06,0.113977,682.2,3.76873e+09
0.000296333,0.00908325,19.8622,394.508,2.79811e-06,297.357,300.395,0.281251,-1.54689e-10,-7453.13,-1.69369e-06,0.114936,682.218,3.76873e+09
0.000299238,0.00908407,19.861,394.459,2.79766e-06,297.336,300.399,0.281256,-1.54447e-10,-7427.35,-1.69104e-06,0.115892,682.236,3.76873e+09
0.000302143,0.00908488,19.8598,394.41,2.79721e-06,297.314,300.403,0.281261,-1.54206e-10,-7401.66,-1.68841e-06,0.116846,682.255,3.76873e+09
0.000305048,0.0090857,19.8585,394.361,2.79676e-06,297.293,300.406,0.281265,-1.53967e-10,-7376.06,-1.68578e-06,0.117796,682.273,3.76873e+09
0.000307953,0.00908652,19.8573,394.312,2.79632e-06,297.271,300.41,0.28127,-1.53728e-10,-7350.54,-1.68317e-06,0.118744,682.291,3.76873e+09
0.000310859,0.00908733,19.856,394.263,2.79587e-06,297.25,300.414,0.281274,-1.53491e-10,-7325.11,-1.68057e-06,0.119688,682.309,3.76873e+09
0.000313764,0.00908815,19.8548,394.214,2.79542e-06,297.229,300.418,0.281279,-1.53254e-10,-7299.76,-1.67798e-06,0.12063,682.327,3.76873e+09
0.000316669,0.00908897,19.8536,394.165,2.79498e-06,297.207,300.422,0.281283,-1.53019e-10,-7274.5,-1.6754e-06,0.121569,682.345,3.76873e+09
0.000319574,0.00908978,19.8524,394.116,2.79454e-06,297.186,300.425,0.281288,-1.52784e-10,-7249.32,-1.67283e-06,0.122505,682.363,3.76873e+09
0.00032248,0.0090906,19.8511,394.068,2.79409e-06,297.165,300.429,0.281292,-1.52551e-10,-7224.23,-1.67028e-06,0.123438,682.381,3.76873e+09
0.000325385,0.00909141,19.8499,394.019,2.79365e-06,297.144,300.433,0.281297,-1.52318e-10,-7199.22,-1.66773e-06,0.124369,682.398,3.76873e+09
0.00032829,0.00909223,19.8487,393.971,2.79321e-06,297.123,300.437,0.281301,-1.52087e-10,-7174.29,-1.6652e-06,0.125296,682.416,3.76873e+09
0.000331195,0.00909305,19.8475,393.923,2.79276e-06,297.102,300.441,0.281306,-1.51857e-10,-7149.45,-1.66268e-06,0.126221,682.434,3.76873e+09
0.0003341,0.00909386,19.8463,393.874,2.79232e-06,297.082,300.444,0.28131,-1.51628e-10,-7124.69,-1.66017e-06,0.127143,682.451,3.76873e+09
0.000337006,0.00909468,19.8451,393.826,2.79188e-06,297.061,300.448,0.281315,-1.51399e-10,-7100.02,-1.65767e-06,0.128062,682.469,3.76873e+09
0.000339911,0.0090955,19.8438,393.778,2.79144e-06,297.04,300.452,0.281319,-1.51172e-10,-7075.42,-1.65518e-06,0.128978,682.486,3.76873e+09
0.000342816,0.00909631,19.8426,393.73,2.791e-06,297.02,300.456,0.281324,-1.50946e-10,-7050.91,-1.6527e-06,0.129892,682.503,3.76873e+09
0.000345721,0.00909713,19.8414,393.682,2.79056e-06,296.999,300.46,0.281328,-1.5072e-10,-7026.49,-1.65024e-06,0.130802,682.521,3.76873e+09
0.000348626,0.00909795,19.8402,393.634,2.79013e-06,296.979,300.464,0.281333,-1.50496e-10,-7002.14,-1.64778e-06,0.13171,682.538,3.76873e+09
0.000351532,0.00909876,19.839,393.587,2.78969e-06,296.959,300.467,0.281337,-1.50273e-10,-6977.87,-1.64534e-06,0.132616,682.555,3.76873e+09
0.000354437,0.00909958,19.8378,393.539,2.78925e-06,296.938,300.471,0.281342,-1.5005e-10,-6953.69,-1.6429e-06,0.133518,682.572,3.76873e+09
0.000357342,0.00910039,19.8366,393.491,2.78882e-06,296.918,300.475,0.281346,-1.49829e-10,-6929.58,-1.64048e-06,0.134418,682.589,3.76873e+09
0.000360247,0.00910121,19.8354,393.444,2.78838e-06,296.898,300.479,0.281351,-1.49609e-10,-6905.56,-1.63807e-06,0.135315,682.606,3.76873e+09
0.000363153,0.00910203,19.8342,393.397,2.78795e-06,296.878,300.483,0.281355,-1.49389e-10,-6881.62,-1.63566e-06,0.136209,682.623,3.76873e+09
0.000366058,0.00910284,19.833,393.349,2.78751e-06,296.858,300.486,0.28136,-1.49171e-10,-6857.75,-1.63327e-06,0.137101,682.64,3.76873e+09
0.000368963,0.00910366,19.8318,393.302,2.78708e-06,296.838,300.49,0.281364,-1.48953e-10,-6833.97,-1.63089e-06,0.13799,682.657,3.76873e+09
0.000371868,0.00910448,19.8307,393.255,2.78665e-06,296.818,300.494,0.281369,-1.48737e-10,-6810.26,-1.62852e-06,0.138876,682.674,3.76873e+09
0.000374773,0.00910529,19.8295,393.208,2.78621e-06,296.798,300.498,0.281374,-1.48521e-10,-6786.64,-1.62616e-06,0.13976,682.69,3.76873e+09
0.000377679,0.00910611,19.8283,393.161,2.78578e-06,296.779,300.502,0.281378,-1.48306e-10,-6763.09,-1.62381e-06,0.14064,682.707,3.76873e+09
0.000380584,0.00910693,19.8271,393.114,2.78535e-06,296.759,300.505,0.281383,-1.48093e-10,-6739.62,-1.62147e-06,0.141519,682.724,3.76873e+09
0.000383489,0.00910774,19.8259,393.067,2.78492e-06,296.739,300.509,0.281387,-1.4788e-10,-6716.23,-1.61914e-06,0.142394,682.74,3.76873e+09
0.000386394,0.00910856,19.8247,393.02,2.78449e-06,296.72,300.513,0.281392,-1.47668e-10,-6692.91,-1.61682e-06,0.143267,682.757,3.76873e+09
0.0003893,0.00910937,19.8236,392.974,2.78406e-06,296.7,300.517,0.281396,-1.47457e-10,-6669.68,-1.61451e-06,0.144138,682.773,3.76873e+09
0.000392205,0.00911019,19.8224,392.927,2.78364e-06,296.681,300.521,0.281401,-1.47247e-10,-6646.52,-1.61221e-06,0.145005,682.789,3.76873e+09
0.00039511,0.00911101,19.8212,392.881,2.78321e-06,296.662,300.524,0.281405,-1.47038e-10,-6623.43,-1.60992e-06,0.14587,682.806,3.76873e+09
0.000398015,0.00911182,19.82,392.834,2.78278e-06,296.643,300.528,0.28141,-1.4683e-10,-6600.43,-1.60764e-06,0.146733,682.822,3.76873e+09
0.00040092,0.00911264,19.8189,392.788,2.78235e-06,296.623,300.532,0.281414,-1.46622e-10,-6577.5,-1.60537e-06,0.147593,682.838,3.76873e+09
0.000403826,0.00911346,19.8177,392.741,2.78193e-06,296.604,300.536,0.281419,-1.46416e-10,-6554.64,-1.60311e-06,0.14845,682.854,3.76873e+09
0.000406731,0.00911427,19.8165,392.695,2.7815e-06,296.585,300.54,0.281423,-1.4621e-10,-6531.86,-1.60086e-06,0.149305,682.87,3.76873e+09
0.000409636,0.00911509,19.8154,392.649,2.78108e-06,296.566,300.543,0.281428,-1.46006e-10,-6509.16,-1.59862e-06,0.150157,682.886,3.76873e+09
0.000412541,0.00911591,19.8142,392.603,2.78065e-06,296.547,300.547,0.281432,-1.45802e-10,-6486.53,-1.59639e-06,0.151007,682.902,3.76873e+09
