# t [s], xp [m], d [micron], d^2 [micron^2], mp [mg], Tp [K], Tg [K], ug [m/s], mtfd, htfd, Sm [kg/m3s], Sh [J/m3s], rho[kg/m3s], Mliquid
0,0.009,20,400,2.84829e-06,300,300.042,0.332569,0,0,0,0,679.979,4.46136e+09
2.44298e-06,0.00900081,20.0009,400.035,2.84784e-06,299.974,300.043,0.33257,-1.85735e-10,-10549.6,-2.02433e-06,0.00261325,680.001,4.46136e+09
4.88596e-06,0.00900162,19.9996,399.984,2.84738e-06,299.948,300.044,0.332571,-1.8541e-10,-10520.1,-2.02079e-06,0.00361302,680.023,4.46136e+09
7.32893e-06,0.00900244,19.9983,399.933,2.84693e-06,299.923,300.044,0.332572,-1.85087e-10,-10490.8,-2.01726e-06,0.00460988,680.045,4.46136e+09
9.77191e-06,0.00900325,19.9971,399.882,2.84648e-06,299.897,300.045,0.332572,-1.84765e-10,-10461.5,-2.01375e-06,0.00560385,680.067,4.46136e+09
1.22149e-05,0.00900406,19.9958,399.832,2.84603e-06,299.871,300.045,0.332573,-1.84444e-10,-10432.3,-2.01025e-06,0.00659491,680.088,4.46136e+09
1.46579e-05,0.00900487,19.9945,399.781,2.84558e-06,299.846,300.046,0.332574,-1.84124e-10,-10403.2,-2.00677e-06,0.0075831,680.11,4.46136e+09
1.71008e-05,0.00900569,19.9933,399.73,2.84513e-06,299.821,300.046,0.332575,-1.83806e-10,-10374.2,-2.0033e-06,0.0085684,680.132,4.46136e+09
1.95438e-05,0.0090065,19.992,399.68,2.84468e-06,299.795,300.047,0.332575,-1.83489e-10,-10345.3,-1.99984e-06,0.00955084,680.153,4.46136e+09
2.19868e-05,0.00900731,19.9907,399.63,2.84423e-06,299.77,300.048,0.332576,-1.83173e-10,-10316.5,-1.9964e-06,0.0105304,680.175,4.46136e+09
2.44298e-05,0.00900812,19.9895,399.579,2.84378e-06,299.745,300.048,0.332577,-1.82858e-10,-10287.7,-1.99297e-06,0.0115071,680.196,4.46136e+09
2.68728e-05,0.00900894,19.9882,399.529,2.84333e-06,299.72,300.049,0.332578,-1.82545e-10,-10259.1,-1.98955e-06,0.012481,680.217,4.46136e+09
2.93157e-05,0.00900975,19.987,399.479,2.84289e-06,299.695,300.049,0.332579,-1.82233e-10,-10230.5,-1.98615e-06,0.0134521,680.239,4.46136e+09
3.17587e-05,0.00901056,19.9857,399.429,2.84244e-06,299.67,300.05,0.332579,-1.81922e-10,-10202,-1.98276e-06,0.0144203,680.26,4.46136e+09
3.42017e-05,0.00901137,19.9845,399.379,2.842e-06,299.645,300.051,0.33258,-1.81612e-10,-10173.6,-1.97939e-06,0.0153857,680.281,4.46136e+09
3.66447e-05,0.00901219,19.9832,399.329,2.84155e-06,299.62,300.051,0.332581,-1.81303e-10,-10145.3,-1.97602e-06,0.0163483,680.302,4.46136e+09
3.90876e-05,0.009013,19.982,399.279,2.84111e-06,299.595,300.052,0.332582,-1.80996e-10,-10117.1,-1.97267e-06,0.0173081,680.323,4.46136e+09
4.15306e-05,0.00901381,19.9807,399.23,2.84067e-06,299.57,300.052,0.332582,-1.8069e-10,-10089,-1.96934e-06,0.0182652,680.344,4.46136e+09
4.39736e-05,0.00901462,19.9795,399.18,2.84023e-06,299.546,300.053,0.332583,-1.80385e-10,-10060.9,-1.96601e-06,0.0192194,680.365,4.46136e+09
4.64166e-05,0.00901544,19.9783,399.131,2.83979e-06,299.521,300.053,0.332584,-1.80081e-10,-10033,-1.9627e-06,0.0201709,680.386,4.46136e+09
4.88596e-05,0.00901625,19.977,399.082,2.83935e-06,299.497,300.054,0.332585,-1.79778e-10,-10005.1,-1.9594e-06,0.0211196,680.407,4.46136e+09
5.13025e-05,0.00901706,19.9758,399.032,2.83891e-06,299.472,300.055,0.332585,-1.79477e-10,-9977.33,-1.95612e-06,0.0220656,680.427,4.46136e+09
5.37455e-05,0.00901787,19.9746,398.983,2.83847e-06,299.448,300.055,0.332586,-1.79177e-10,-9949.62,-1.95285e-06,0.0230088,680.448,4.46136e+09
5.61885e-05,0.00901869,19.9733,398.934,2.83803e-06,299.423,300.056,0.332587,-1.78878e-10,-9922.01,-1.94959e-06,0.0239493,680.469,4.46136e+09
5.86315e-05,0.0090195,19.9721,398.885,2.8376e-06,299.399,300.056,0.332588,-1.7858e-10,-9894.47,-1.94634e-06,0.0248871,680.489,4.46136e+09
6.10744e-05,0.00902031,19.9709,398.836,2.83716e-06,299.375,300.057,0.332589,-1.78283e-10,-9867.02,-1.94311e-06,0.0258221,680.51,4.46136e+09
6.35174e-05,0.00902112,19.9697,398.787,2.83672e-06,299.351,300.057,0.332589,-1.77987e-10,-9839.66,-1.93988e-06,0.0267545,680.53,4.46136e+09
6.59604e-05,0.00902194,19.9684,398.739,2.83629e-06,299.327,300.058,0.33259,-1.77693e-10,-9812.37,-1.93667e-06,0.0276841,680.551,4.46136e+09
6.84034e-05,0.00902275,19.9672,398.69,2.83585e-06,299.303,300.059,0.332591,-1.774e-10,-9785.17,-1.93348e-06,0.0286111,680.571,4.46136e+09
7.08463e-05,0.00902356,19.966,398.641,2.83542e-06,299.279,300.059,0.332592,-1.77107e-10,-9758.05,-1.93029e-06,0.0295354,680.591,4.46136e+09
7.32893e-05,0.00902437,19.9648,398.593,2.83499e-06,299.255,300.06,0.332592,-1.76816e-10,-9731.02,-1.92712e-06,0.030457,680.611,4.46136e+09
7.57323e-05,0.00902519,19.9636,398.545,2.83456e-06,299.231,300.06,0.332593,-1.76526e-10,-9704.06,-1.92396e-06,0.031376,680.631,4.46136e+09
7.81753e-05,0.009026,19.9624,398.496,2.83413e-06,299.208,300.061,0.332594,-1.76237e-10,-9677.19,-1.92081e-06,0.0322923,680.652,4.46136e+09
8.06183e-05,0.00902681,19.9612,398.448,2.83369e-06,299.184,300.062,0.332595,-1.7595e-10,-9650.4,-1.91768e-06,0.033206,680.672,4.46136e+09
8.30612e-05,0.00902762,19.96,398.4,2.83326e-06,299.16,300.062,0.332596,-1.75663e-10,-9623.69,-1.91455e-06,0.034117,680.692,4.46136e+09
8.55042e-05,0.00902844,19.9588,398.352,2.83284e-06,299.137,300.063,0.332596,-1.75378e-10,-9597.06,-1.91144e-06,0.0350254,680.712,4.46136e+09
8.79472e-05,0.00902925,19.9576,398.304,2.83241e-06,299.114,300.063,0.332597,-1.75093e-10,-9570.51,-1.90834e-06,0.0359312,680.731,4.46136e+09
9.03902e-05,0.00903006,19.9564,398.256,2.83198e-06,299.09,300.064,0.332598,-1.7481e-10,-9544.04,-1.90525e-06,0.0368344,680.751,4.46136e+09
9.28331e-05,0.00903087,19.9552,398.209,2.83155e-06,299.067,300.064,0.332599,-1.74527e-10,-9517.66,-1.90217e-06,0.037735,680.771,4.46136e+09
9.52761e-05,0.00903169,19.954,398.161,2.83113e-06,299.044,300.065,0.332599,-1.74246e-10,-9491.35,-1.89911e-06,0.038633,680.791,4.46136e+09
9.77191e-05,0.0090325,19.9528,398.113,2.8307e-06,299.02,300.066,0.3326,-1.73966e-10,-9465.12,-1.89606e-06,0.0395284,680.81,4.46136e+09
0.000100162,0.00903331,19.9516,398.066,2.83028e-06,298.997,300.066,0.332601,-1.73687e-10,-9438.97,-1.89302e-06,0.0404212,680.83,4.46136e+09
0.000102605,0.00903412,19.9504,398.018,2.82985e-06,298.974,300.067,0.332602,-1.73409e-10,-9412.89,-1.88999e-06,0.0413115,680.85,4.46136e+09
0.000105048,0.00903494,19.9492,397.971,2.82943e-06,298.951,300.067,0.332602,-1.73132e-10,-9386.9,-1.88697e-06,0.0421992,680.869,4.46136e+09
0.000107491,0.00903575,19.948,397.924,2.829e-06,298.928,300.068,0.332603,-1.72856e-10,-9360.99,-1.88396e-06,0.0430844,680.888,4.46136e+09
0.000109934,0.00903656,19.9468,397.877,2.82858e-06,298.905,300.069,0.332604,-1.72581e-10,-9335.15,-1.88097e-06,0.0439671,680.908,4.46136e+09
0.000112377,0.00903737,19.9457,397.83,2.82816e-06,298.883,300.069,0.332605,-1.72308e-10,-9309.39,-1.87798e-06,0.0448472,680.927,4.46136e+09
0.00011482,0.00903819,19.9445,397.783,2.82774e-06,298.86,300.07,0.332606,-1.72035e-10,-9283.71,-1.87501e-06,0.0457248,680.946,4.46136e+09
0.000117263,0.009039,19.9433,397.736,2.82732e-06,298.837,300.07,0.332606,-1.71763e-10,-9258.1,-1.87205e-06,0.0465998,680.966,4.46136e+09
0.000119706,0.00903981,19.9421,397.689,2.8269e-06,298.815,300.071,0.332607,-1.71493e-10,-9232.57,-1.8691e-06,0.0474724,680.985,4.46136e+09
0.000122149,0.00904062,19.941,397.642,2.82648e-06,298.792,300.071,0.332608,-1.71223e-10,-9207.12,-1.86616e-06,0.0483425,681.004,4.46136e+09
0.000124592,0.00904144,19.9398,397.596,2.82606e-06,298.77,300.072,0.332609,-1.70954e-10,-9181.75,-1.86323e-06,0.0492101,681.023,4.46136e+09
0.000127035,0.00904225,19.9386,397.549,2.82564e-06,298.747,300.073,0.332609,-1.70687e-10,-9156.45,-1.86031e-06,0.0500752,681.042,4.46136e+09
0.000129478,0.00904306,19.9375,397.503,2.82523e-06,298.725,300.073,0.33261,-1.7042e-10,-9131.22,-1.85741e-06,0.0509378,681.061,4.46136e+09
0.000131921,0.00904387,19.9363,397.456,2.82481e-06,298.702,300.074,0.332611,-1.70154e-10,-9106.07,-1.85451e-06,0.051798,681.08,4.46136e+09
0.000134364,0.00904469,19.9351,397.41,2.8244e-06,298.68,300.074,0.332612,-1.6989e-10,-9081,-1.85163e-06,0.0526557,681.099,4.46136e+09
0.000136807,0.0090455,19.934,397.364,2.82398e-06,298.658,300.075,0.332613,-1.69626e-10,-9056,-1.84875e-06,0.0535109,681.118,4.46136e+09
0.00013925,0.00904631,19.9328,397.317,2.82357e-06,298.636,300.075,0.332613,-1.69363e-10,-9031.08,-1.84589e-06,0.0543638,681.136,4.46136e+09
0.000141693,0.00904712,19.9317,397.271,2.82315e-06,298.614,300.076,0.332614,-1.69102e-10,-9006.23,-1.84304e-06,0.0552141,681.155,4.46136e+09
0.000144136,0.00904793,19.9305,397.225,2.82274e-06,298.592,300.077,0.332615,-1.68841e-10,-8981.45,-1.8402e-06,0.0560621,681.174,4.46136e+09
0.000146579,0.00904875,19.9294,397.179,2.82233e-06,298.57,300.077,0.332616,-1.68581e-10,-8956.75,-1.83737e-06,0.0569077,681.192,4.46136e+09
0.000149022,0.00904956,19.9282,397.134,2.82192e-06,298.548,300.078,0.332616,-1.68323e-10,-8932.12,-1.83455e-06,0.0577508,681.211,4.46136e+09
0.000151465,0.00905037,19.9271,397.088,2.8215e-06,298.526,300.078,0.332617,-1.68065e-10,-8907.57,-1.83174e-06,0.0585916,681.229,4.46136e+09
0.000153908,0.00905118,19.9259,397.042,2.82109e-06,298.504,300.079,0.332618,-1.67808e-10,-8883.08,-1.82894e-06,0.0594299,681.248,4.46136e+09
0.000156351,0.009052,19.9248,396.997,2.82068e-06,298.483,300.08,0.332619,-1.67552e-10,-8858.67,-1.82615e-06,0.0602659,681.266,4.46136e+09
0.000158794,0.00905281,19.9236,396.951,2.82027e-06,298.461,300.08,0.332619,-1.67298e-10,-8834.34,-1.82338e-06,0.0610995,681.284,4.46136e+09
0.000161237,0.00905362,19.9225,396.906,2.81987e-06,298.439,300.081,0.33262,-1.67044e-10,-8810.07,-1.82061e-06,0.0619307,681.303,4.46136e+09
0.000163679,0.00905443,19.9213,396.86,2.81946e-06,298.418,300.081,0.332621,-1.66791e-10,-8785.88,-1.81785e-06,0.0627596,681.321,4.46136e+09
0.000166122,0.00905525,19.9202,396.815,2.81905e-06,298.396,300.082,0.332622,-1.66539e-10,-8761.76,-1.8151e-06,0.0635861,681.339,4.46136e+09
0.000168565,0.00905606,19.9191,396.77,2.81864e-06,298.375,300.082,0.332623,-1.66288e-10,-8737.71,-1.81237e-06,0.0644102,681.357,4.46136e+09
0.000171008,0.00905687,19.9179,396.725,2.81824e-06,298.354,300.083,0.332623,-1.66037e-10,-8713.73,-1.80964e-06,0.0652321,681.375,4.46136e+09
0.000173451,0.00905768,19.9168,396.679,2.81783e-06,298.332,300.084,0.332624,-1.65788e-10,-8689.83,-1.80692e-06,0.0660516,681.393,4.46136e+09
0.000175894,0.0090585,19.9157,396.634,2.81743e-06,298.311,300.084,0.332625,-1.6554e-10,-8665.99,-1.80422e-06,0.0668687,681.411,4.46136e+09
0.000178337,0.00905931,19.9146,396.59,2.81702e-06,298.29,300.085,0.332626,-1.65292e-10,-8642.22,-1.80152e-06,0.0676836,681.429,4.46136e+09
0.00018078,0.00906012,19.9134,396.545,2.81662e-06,298.269,300.085,0.332626,-1.65046e-10,-8618.53,-1.79884e-06,0.0684961,681.447,4.46136e+09
0.000183223,0.00906093,19.9123,396.5,2.81621e-06,298.248,300.086,0.332627,-1.648e-10,-8594.9,-1.79616e-06,0.0693064,681.465,4.46136e+09
0.000185666,0.00906175,19.9112,396.455,2.81581e-06,298.227,300.086,0.332628,-1.64556e-10,-8571.35,-1.79349e-06,0.0701144,681.483,4.46136e+09
0.000188109,0.00906256,19.9101,396.411,2.81541e-06,298.206,300.087,0.332629,-1.64312e-10,-8547.86,-1.79084e-06,0.07092,681.5,4.46136e+09
0.000190552,0.00906337,19.9089,396.366,2.81501e-06,298.185,300.088,0.33263,-1.64069e-10,-8524.44,-1.78819e-06,0.0717234,681.518,4.46136e+09
0.000192995,0.00906418,19.9078,396.322,2.81461e-06,298.164,300.088,0.33263,-1.63827e-10,-8501.1,-1.78555e-06,0.0725245,681.536,4.46136e+09
0.000195438,0.009065,19.9067,396.277,2.81421e-06,298.143,300.089,0.332631,-1.63586e-10,-8477.82,-1.78293e-06,0.0733234,681.553,4.46136e+09
0.000197881,0.00906581,19.9056,396.233,2.81381e-06,298.123,300.089,0.332632,-1.63346e-10,-8454.61,-1.78031e-06,0.07412,681.571,4.46136e+09
0.000200324,0.00906662,19.9045,396.189,2.81341e-06,298.102,300.09,0.332633,-1.63107e-10,-8431.46,-1.7777e-06,0.0749144,681.588,4.46136e+09
0.000202767,0.00906743,19.9034,396.145,2.81301e-06,298.082,300.091,0.332635,-1.62868e-10,-8408.02,-1.7751e-06,0.0757341,681.606,4.46136e+09
0.00020521,0.00906825,19.9023,396.1,2.81261e-06,298.061,300.093,0.332637,-1.62631e-10,-8384.62,-1.77252e-06,0.0765531,681.623,4.46136e+09
0.000207653,0.00906906,19.9012,396.056,2.81222e-06,298.04,300.094,0.332639,-1.62395e-10,-8361.28,-1.76994e-06,0.0773698,681.64,4.46136e+09
0.000210096,0.00906987,19.9001,396.013,2.81182e-06,298.02,300.095,0.332641,-1.62159e-10,-8338.02,-1.76737e-06,0.0781843,681.658,4.46136e+09
0.000212539,0.00907068,19.899,395.969,2.81142e-06,298,300.097,0.332643,-1.61924e-10,-8314.82,-1.76481e-06,0.0789966,681.675,4.46136e+09
0.000214982,0.0090715,19.8979,395.925,2.81103e-06,297.979,300.098,0.332645,-1.6169e-10,-8291.69,-1.76226e-06,0.0798066,681.692,4.46136e+09
0.000217425,0.00907231,19.8968,395.881,2.81063e-06,297.959,300.099,0.332647,-1.61457e-10,-8268.63,-1.75972e-06,0.0806144,681.709,4.46136e+09
0.000219868,0.00907312,19.8957,395.837,2.81024e-06,297.939,300.1,0.332649,-1.61225e-10,-8245.64,-1.75719e-06,0.08142,681.726,4.46136e+09
0.000222311,0.00907393,19.8946,395.794,2.80984e-06,297.919,300.102,0.332651,-1.60994e-10,-8222.71,-1.75467e-06,0.0822234,681.743,4.46136e+09
0.000224754,0.00907475,19.8935,395.75,2.80945e-06,297.899,300.103,0.332653,-1.60763e-10,-8199.85,-1.75216e-06,0.0830245,681.76,4.46136e+09
0.000227197,0.00907556,19.8924,395.707,2.80906e-06,297.879,300.104,0.332655,-1.60534e-10,-8177.06,-1.74966e-06,0.0838234,681.777,4.46136e+09
0.00022964,0.00907637,19.8913,395.664,2.80867e-06,297.859,300.106,0.332657,-1.60305e-10,-8154.33,-1.74716e-06,0.0846202,681.794,4.46136e+09
0.000232083,0.00907718,19.8902,395.62,2.80827e-06,297.839,300.107,0.332659,-1.60077e-10,-8131.67,-1.74468e-06,0.0854147,681.811,4.46136e+09
0.000234526,0.009078,19.8891,395.577,2.80788e-06,297.819,300.108,0.332661,-1.5985e-10,-8109.08,-1.74221e-06,0.0862071,681.828,4.46136e+09
0.000236969,0.00907881,19.888,395.534,2.80749e-06,297.799,300.11,0.332663,-1.59624e-10,-8086.55,-1.73974e-06,0.0869973,681.845,4.46136e+09
0.000239412,0.00907962,19.887,395.491,2.8071e-06,297.779,300.111,0.332666,-1.59398e-10,-8064.08,-1.73728e-06,0.0877853,681.861,4.46136e+09
0.000241855,0.00908043,19.8859,395.448,2.80671e-06,297.76,300.112,0.332668,-1.59174e-10,-8041.69,-1.73484e-06,0.0885712,681.878,4.46136e+09
0.000244298,0.00908125,19.8848,395.405,2.80632e-06,297.74,300.114,0.33267,-1.5895e-10,-8019.35,-1.7324e-06,0.0893549,681.895,4.46136e+09
0.000246741,0.00908206,19.8837,395.362,2.80594e-06,297.72,300.115,0.332672,-1.58727e-10,-7997.08,-1.72997e-06,0.0901365,681.911,4.46136e+09
0.000249184,0.00908287,19.8826,395.319,2.80555e-06,297.701,300.116,0.332674,-1.58505e-10,-7974.88,-1.72755e-06,0.0909159,681.928,4.46136e+09
0.000251627,0.00908368,19.8816,395.276,2.80516e-06,297.681,300.118,0.332676,-1.58284e-10,-7952.74,-1.72514e-06,0.0916932,681.944,4.46136e+09
0.00025407,0.0090845,19.8805,395.234,2.80477e-06,297.662,300.119,0.332678,-1.58063e-10,-7930.66,-1.72273e-06,0.0924684,681.961,4.46136e+09
0.000256513,0.00908531,19.8794,395.191,2.80439e-06,297.643,300.12,0.33268,-1.57844e-10,-7908.65,-1.72034e-06,0.0932415,681.977,4.46136e+09
0.000258956,0.00908612,19.8783,395.149,2.804e-06,297.623,300.122,0.332682,-1.57625e-10,-7886.7,-1.71795e-06,0.0940124,681.993,4.46136e+09
0.000261399,0.00908693,19.8773,395.106,2.80362e-06,297.604,300.123,0.332684,-1.57407e-10,-7864.82,-1.71558e-06,0.0947812,682.01,4.46136e+09
0.000263842,0.00908775,19.8762,395.064,2.80323e-06,297.585,300.124,0.332686,-1.5719e-10,-7843,-1.71321e-06,0.095548,682.026,4.46136e+09
0.000266285,0.00908856,19.8751,395.021,2.80285e-06,297.566,300.126,0.332688,-1.56973e-10,-7821.24,-1.71085e-06,0.0963126,682.042,4.46136e+09
0.000268728,0.00908937,19.8741,394.979,2.80247e-06,297.546,300.127,0.33269,-1.56757e-10,-7799.54,-1.7085e-06,0.0970752,682.058,4.46136e+09
0.000271171,0.00909018,19.873,394.937,2.80208e-06,297.527,300.128,0.332692,-1.56542e-10,-7777.91,-1.70616e-06,0.0978356,682.074,4.46136e+09
0.000273613,0.009091,19.872,394.895,2.8017e-06,297.508,300.13,0.332694,-1.56328e-10,-7756.34,-1.70382e-06,0.098594,682.09,4.46136e+09
0.000276056,0.00909181,19.8709,394.853,2.80132e-06,297.489,300.131,0.332696,-1.56115e-10,-7734.83,-1.7015e-06,0.0993504,682.106,4.46136e+09
0.000278499,0.00909262,19.8698,394.811,2.80094e-06,297.471,300.132,0.332699,-1.55902e-10,-7713.38,-1.69918e-06,0.100105,682.122,4.46136e+09
0.000280942,0.00909343,19.8688,394.769,2.80056e-06,297.452,300.134,0.332701,-1.55691e-10,-7692,-1.69687e-06,0.100857,682.138,4.46136e+09
0.000283385,0.00909425,19.8677,394.727,2.80018e-06,297.433,300.135,0.332703,-1.5548e-10,-7670.67,-1.69457e-06,0.101607,682.154,4.46136e+09
0.000285828,0.00909506,19.8667,394.685,2.7998e-06,297.414,300.136,0.332705,-1.55269e-10,-7649.41,-1.69228e-06,0.102355,682.17,4.46136e+09
0.000288271,0.00909587,19.8656,394.643,2.79942e-06,297.396,300.138,0.332707,-1.5506e-10,-7628.21,-1.69e-06,0.103101,682.186,4.46136e+09
0.000290714,0.00909668,19.8646,394.602,2.79904e-06,297.377,300.139,0.332709,-1.54851e-10,-7607.07,-1.68772e-06,0.103845,682.202,4.46136e+09
0.000293157,0.0090975,19.8635,394.56,2.79866e-06,297.358,300.14,0.332711,-1.54643e-10,-7585.99,-1.68545e-06,0.104587,682.217,4.46136e+09
0.0002956,0.00909831,19.8625,394.518,2.79828e-06,297.34,300.142,0.332713,-1.54436e-10,-7564.97,-1.6832e-06,0.105327,682.233,4.46136e+09
0.000298043,0.00909912,19.8614,394.477,2.7979e-06,297.321,300.143,0.332715,-1.54229e-10,-7544.01,-1.68095e-06,0.106065,682.249,4.46136e+09
0.000300486,0.00909993,19.8604,394.436,2.79753e-06,297.303,300.144,0.332717,-1.54024e-10,-7523.11,-1.6787e-06,0.106801,682.264,4.46136e+09
0.000302929,0.00910075,19.8594,394.394,2.79715e-06,297.284,300.146,0.332719,-1.53819e-10,-7502.28,-1.67647e-06,0.107535,682.28,4.46136e+09
0.000305372,0.00910156,19.8583,394.353,2.79678e-06,297.266,300.147,0.332721,-1.53614e-10,-7481.5,-1.67424e-06,0.108267,682.295,4.46136e+09
0.000307815,0.00910237,19.8573,394.312,2.7964e-06,297.248,300.148,0.332723,-1.53411e-10,-7460.78,-1.67202e-06,0.108998,682.311,4.46136e+09
0.000310258,0.00910318,19.8562,394.271,2.79602e-06,297.23,300.15,0.332725,-1.53208e-10,-7440.12,-1.66981e-06,0.109726,682.326,4.46136e+09
0.000312701,0.009104,19.8552,394.229,2.79565e-06,297.211,300.151,0.332727,-1.53006e-10,-7419.52,-1.66761e-06,0.110452,682.341,4.46136e+09
0.000315144,0.00910481,19.8542,394.188,2.79528e-06,297.193,300.152,0.332729,-1.52805e-10,-7398.97,-1.66542e-06,0.111176,682.357,4.46136e+09
0.000317587,0.00910562,19.8531,394.147,2.7949e-06,297.175,300.153,0.332732,-1.52604e-10,-7378.49,-1.66323e-06,0.111898,682.372,4.46136e+09
0.00032003,0.00910643,19.8521,394.107,2.79453e-06,297.157,300.155,0.332734,-1.52404e-10,-7358.07,-1.66105e-06,0.112618,682.387,4.46136e+09
0.000322473,0.00910725,19.8511,394.066,2.79416e-06,297.139,300.156,0.332736,-1.52205e-10,-7337.7,-1.65888e-06,0.113336,682.402,4.46136e+09
0.000324916,0.00910806,19.8501,394.025,2.79379e-06,297.121,300.157,0.332738,-1.52006e-10,-7317.39,-1.65672e-06,0.114053,682.418,4.46136e+09
0.000327359,0.00910887,19.849,393.984,2.79342e-06,297.103,300.159,0.33274,-1.51809e-10,-7297.14,-1.65456e-06,0.114767,682.433,4.46136e+09
0.000329802,0.00910968,19.848,393.943,2.79304e-06,297.086,300.16,0.332742,-1.51612e-10,-7276.95,-1.65241e-06,0.11548,682.448,4.46136e+09
0.000332245,0.0091105,19.847,393.903,2.79267e-06,297.068,300.161,0.332744,-1.51415e-10,-7256.81,-1.65027e-06,0.11619,682.463,4.46136e+09
0.000334688,0.00911131,19.846,393.862,2.7923e-06,297.05,300.163,0.332746,-1.5122e-10,-7236.73,-1.64814e-06,0.116899,682.478,4.46136e+09
0.000337131,0.00911212,19.8449,393.822,2.79193e-06,297.032,300.164,0.332748,-1.51025e-10,-7216.71,-1.64602e-06,0.117605,682.493,4.46136e+09
0.000339574,0.00911293,19.8439,393.781,2.79157e-06,297.015,300.165,0.33275,-1.5083e-10,-7196.75,-1.6439e-06,0.11831,682.508,4.46136e+09
0.000342017,0.00911375,19.8429,393.741,2.7912e-06,296.997,300.167,0.332752,-1.50637e-10,-7176.84,-1.64179e-06,0.119013,682.522,4.46136e+09
0.00034446,0.00911456,19.8419,393.701,2.79083e-06,296.98,300.168,0.332754,-1.50444e-10,-7156.99,-1.63969e-06,0.119714,682.537,4.46136e+09
0.000346903,0.00911537,19.8409,393.661,2.79046e-06,296.962,300.169,0.332756,-1.50252e-10,-7137.2,-1.63759e-06,0.120413,682.552,4.46136e+09
