# t [s], xp [m], d [micron], d^2 [micron^2], mp [mg], Tp [K], Tg [K], ug [m/s], mtfd, htfd, Sm [kg/m3s], Sh [J/m3s], rho[kg/m3s], Mliquid
0,0.009,20,400,2.84829e-06,300,300.165,0.282828,0,0,0,0,679.979,3.79299e+09
2.89244e-06,0.00900082,20.0007,400.026,2.84775e-06,299.97,300.167,0.28283,-1.85714e-10,-10482.8,-2.03747e-06,0.00754908,680.005,3.79299e+09
5.78489e-06,0.00900164,19.9991,399.966,2.84722e-06,299.939,300.169,0.282832,-1.85332e-10,-10447.5,-2.03328e-06,0.00878032,680.031,3.79299e+09
8.67733e-06,0.00900245,19.9976,399.905,2.84668e-06,299.909,300.171,0.282834,-1.84952e-10,-10412.4,-2.02911e-06,0.0100074,680.057,3.79299e+09
1.15698e-05,0.00900327,19.9961,399.845,2.84614e-06,299.879,300.173,0.282836,-1.84574e-10,-10377.3,-2.02496e-06,0.0112303,680.082,3.79299e+09
1.44622e-05,0.00900409,19.9946,399.785,2.84561e-06,299.849,300.174,0.282838,-1.84198e-10,-10342.4,-2.02083e-06,0.0124491,680.108,3.79299e+09
1.73547e-05,0.00900491,19.9931,399.725,2.84508e-06,299.819,300.176,0.28284,-1.83823e-10,-10307.7,-2.01672e-06,0.0136637,680.133,3.79299e+09
2.02471e-05,0.00900572,19.9916,399.666,2.84455e-06,299.789,300.178,0.282842,-1.8345e-10,-10273,-2.01263e-06,0.0148743,680.158,3.79299e+09
2.31396e-05,0.00900654,19.9902,399.606,2.84402e-06,299.759,300.18,0.282844,-1.83079e-10,-10238.5,-2.00856e-06,0.0160807,680.183,3.79299e+09
2.6032e-05,0.00900736,19.9887,399.547,2.84349e-06,299.73,300.182,0.282846,-1.8271e-10,-10204.1,-2.00451e-06,0.0172831,680.209,3.79299e+09
2.89244e-05,0.00900818,19.9872,399.487,2.84296e-06,299.7,300.184,0.282848,-1.82342e-10,-10169.8,-2.00047e-06,0.0184815,680.234,3.79299e+09
3.18169e-05,0.009009,19.9857,399.428,2.84243e-06,299.671,300.186,0.28285,-1.81976e-10,-10135.7,-1.99646e-06,0.0196758,680.259,3.79299e+09
3.47093e-05,0.00900981,19.9842,399.369,2.8419e-06,299.642,300.188,0.282852,-1.81612e-10,-10101.6,-1.99247e-06,0.020866,680.284,3.79299e+09
3.76018e-05,0.00901063,19.9827,399.31,2.84138e-06,299.612,300.19,0.282854,-1.8125e-10,-10067.7,-1.98849e-06,0.0220523,680.308,3.79299e+09
4.04942e-05,0.00901145,19.9813,399.251,2.84085e-06,299.583,300.191,0.282856,-1.80889e-10,-10033.9,-1.98453e-06,0.0232346,680.333,3.79299e+09
4.33867e-05,0.00901227,19.9798,399.193,2.84033e-06,299.554,300.193,0.282858,-1.8053e-10,-10000.3,-1.98059e-06,0.0244129,680.358,3.79299e+09
4.62791e-05,0.00901309,19.9783,399.134,2.83981e-06,299.525,300.195,0.28286,-1.80172e-10,-9966.72,-1.97667e-06,0.0255873,680.382,3.79299e+09
4.91715e-05,0.0090139,19.9769,399.076,2.83929e-06,299.496,300.197,0.282862,-1.79817e-10,-9933.3,-1.97277e-06,0.0267577,680.407,3.79299e+09
5.2064e-05,0.00901472,19.9754,399.018,2.83877e-06,299.468,300.199,0.282864,-1.79462e-10,-9900,-1.96888e-06,0.0279241,680.431,3.79299e+09
5.49564e-05,0.00901554,19.974,398.959,2.83825e-06,299.439,300.201,0.282866,-1.7911e-10,-9866.82,-1.96502e-06,0.0290867,680.455,3.79299e+09
5.78489e-05,0.00901636,19.9725,398.901,2.83773e-06,299.411,300.203,0.282868,-1.78759e-10,-9833.75,-1.96117e-06,0.0302454,680.48,3.79299e+09
6.07413e-05,0.00901717,19.9711,398.844,2.83721e-06,299.382,300.205,0.28287,-1.7841e-10,-9800.81,-1.95734e-06,0.0314002,680.504,3.79299e+09
6.36338e-05,0.00901799,19.9696,398.786,2.8367e-06,299.354,300.207,0.282872,-1.78062e-10,-9767.98,-1.95352e-06,0.0325511,680.528,3.79299e+09
6.65262e-05,0.00901881,19.9682,398.728,2.83618e-06,299.326,300.208,0.282874,-1.77717e-10,-9735.27,-1.94973e-06,0.0336982,680.552,3.79299e+09
6.94187e-05,0.00901963,19.9667,398.671,2.83567e-06,299.297,300.21,0.282876,-1.77372e-10,-9702.68,-1.94595e-06,0.0348415,680.576,3.79299e+09
7.23111e-05,0.00902045,19.9653,398.613,2.83515e-06,299.269,300.212,0.282878,-1.77029e-10,-9670.2,-1.94219e-06,0.0359809,680.599,3.79299e+09
7.52035e-05,0.00902126,19.9639,398.556,2.83464e-06,299.241,300.214,0.28288,-1.76688e-10,-9637.84,-1.93845e-06,0.0371166,680.623,3.79299e+09
7.8096e-05,0.00902208,19.9624,398.499,2.83413e-06,299.213,300.216,0.282882,-1.76349e-10,-9605.6,-1.93472e-06,0.0382484,680.647,3.79299e+09
8.09884e-05,0.0090229,19.961,398.442,2.83362e-06,299.186,300.218,0.282884,-1.76011e-10,-9573.47,-1.93101e-06,0.0393765,680.67,3.79299e+09
8.38809e-05,0.00902372,19.9596,398.385,2.83311e-06,299.158,300.22,0.282886,-1.75674e-10,-9541.45,-1.92732e-06,0.0405008,680.694,3.79299e+09
8.67733e-05,0.00902453,19.9582,398.328,2.8326e-06,299.13,300.222,0.282888,-1.75339e-10,-9509.55,-1.92365e-06,0.0416214,680.717,3.79299e+09
8.96658e-05,0.00902535,19.9567,398.272,2.8321e-06,299.103,300.224,0.28289,-1.75006e-10,-9477.76,-1.91999e-06,0.0427382,680.74,3.79299e+09
9.25582e-05,0.00902617,19.9553,398.215,2.83159e-06,299.075,300.225,0.282892,-1.74674e-10,-9446.09,-1.91635e-06,0.0438514,680.764,3.79299e+09
9.54506e-05,0.00902699,19.9539,398.159,2.83109e-06,299.048,300.227,0.282894,-1.74343e-10,-9414.52,-1.91272e-06,0.0449608,680.787,3.79299e+09
9.83431e-05,0.00902781,19.9525,398.102,2.83058e-06,299.021,300.229,0.282896,-1.74015e-10,-9383.07,-1.90911e-06,0.0460666,680.81,3.79299e+09
0.000101236,0.00902862,19.9511,398.046,2.83008e-06,298.994,300.231,0.282898,-1.73687e-10,-9351.73,-1.90552e-06,0.0471687,680.833,3.79299e+09
0.000104128,0.00902944,19.9497,397.99,2.82958e-06,298.967,300.233,0.2829,-1.73361e-10,-9320.51,-1.90195e-06,0.0482671,680.856,3.79299e+09
0.00010702,0.00903026,19.9483,397.934,2.82907e-06,298.94,300.235,0.282902,-1.73037e-10,-9289.39,-1.89839e-06,0.0493619,680.879,3.79299e+09
0.000109913,0.00903108,19.9469,397.878,2.82857e-06,298.913,300.237,0.282904,-1.72714e-10,-9258.38,-1.89485e-06,0.050453,680.902,3.79299e+09
0.000112805,0.0090319,19.9455,397.823,2.82807e-06,298.886,300.239,0.282906,-1.72393e-10,-9227.48,-1.89132e-06,0.0515406,680.924,3.79299e+09
0.000115698,0.00903271,19.9441,397.767,2.82758e-06,298.859,300.241,0.282908,-1.72073e-10,-9196.69,-1.88781e-06,0.0526246,680.947,3.79299e+09
0.00011859,0.00903353,19.9427,397.712,2.82708e-06,298.833,300.242,0.28291,-1.71754e-10,-9166.02,-1.88432e-06,0.0537049,680.969,3.79299e+09
0.000121483,0.00903435,19.9413,397.656,2.82658e-06,298.806,300.244,0.282912,-1.71437e-10,-9135.44,-1.88084e-06,0.0547817,680.992,3.79299e+09
0.000124375,0.00903517,19.9399,397.601,2.82609e-06,298.78,300.246,0.282914,-1.71122e-10,-9104.98,-1.87738e-06,0.055855,681.014,3.79299e+09
0.000127268,0.00903598,19.9386,397.546,2.82559e-06,298.754,300.248,0.282916,-1.70807e-10,-9074.62,-1.87393e-06,0.0569247,681.037,3.79299e+09
0.00013016,0.0090368,19.9372,397.491,2.8251e-06,298.727,300.25,0.282918,-1.70495e-10,-9044.37,-1.8705e-06,0.0579909,681.059,3.79299e+09
0.000133052,0.00903762,19.9358,397.436,2.8246e-06,298.701,300.252,0.28292,-1.70183e-10,-9014.23,-1.86708e-06,0.0590535,681.081,3.79299e+09
0.000135945,0.00903844,19.9344,397.381,2.82411e-06,298.675,300.254,0.282922,-1.69873e-10,-8984.19,-1.86368e-06,0.0601127,681.103,3.79299e+09
0.000138837,0.00903926,19.9331,397.327,2.82362e-06,298.649,300.256,0.282924,-1.69565e-10,-8954.26,-1.8603e-06,0.0611684,681.125,3.79299e+09
0.00014173,0.00904007,19.9317,397.272,2.82313e-06,298.623,300.257,0.282926,-1.69258e-10,-8924.43,-1.85693e-06,0.0622206,681.147,3.79299e+09
0.000144622,0.00904089,19.9303,397.218,2.82264e-06,298.597,300.259,0.282928,-1.68952e-10,-8894.71,-1.85357e-06,0.0632693,681.169,3.79299e+09
0.000147515,0.00904171,19.929,397.163,2.82215e-06,298.572,300.261,0.28293,-1.68648e-10,-8865.09,-1.85023e-06,0.0643146,681.191,3.79299e+09
0.000150407,0.00904253,19.9276,397.109,2.82166e-06,298.546,300.263,0.282932,-1.68345e-10,-8835.58,-1.84691e-06,0.0653565,681.212,3.79299e+09
0.0001533,0.00904335,19.9262,397.055,2.82118e-06,298.52,300.265,0.282934,-1.68043e-10,-8806.17,-1.8436e-06,0.0663949,681.234,3.79299e+09
0.000156192,0.00904416,19.9249,397.001,2.82069e-06,298.495,300.267,0.282936,-1.67743e-10,-8776.86,-1.8403e-06,0.06743,681.256,3.79299e+09
0.000159084,0.00904498,19.9235,396.947,2.8202e-06,298.47,300.269,0.282938,-1.67444e-10,-8747.66,-1.83702e-06,0.0684616,681.277,3.79299e+09
0.000161977,0.0090458,19.9222,396.894,2.81972e-06,298.444,300.271,0.28294,-1.67146e-10,-8718.55,-1.83376e-06,0.0694899,681.299,3.79299e+09
0.000164869,0.00904662,19.9208,396.84,2.81924e-06,298.419,300.273,0.282942,-1.6685e-10,-8689.55,-1.83051e-06,0.0705148,681.32,3.79299e+09
0.000167762,0.00904744,19.9195,396.786,2.81875e-06,298.394,300.274,0.282944,-1.66555e-10,-8660.65,-1.82727e-06,0.0715363,681.341,3.79299e+09
0.000170654,0.00904825,19.9182,396.733,2.81827e-06,298.369,300.276,0.282946,-1.66261e-10,-8631.85,-1.82405e-06,0.0725545,681.362,3.79299e+09
0.000173547,0.00904907,19.9168,396.68,2.81779e-06,298.344,300.278,0.282948,-1.65969e-10,-8603.15,-1.82084e-06,0.0735694,681.384,3.79299e+09
0.000176439,0.00904989,19.9155,396.626,2.81731e-06,298.319,300.28,0.28295,-1.65678e-10,-8574.55,-1.81765e-06,0.0745809,681.405,3.79299e+09
0.000179332,0.00905071,19.9141,396.573,2.81683e-06,298.294,300.282,0.282952,-1.65388e-10,-8546.05,-1.81447e-06,0.0755892,681.426,3.79299e+09
0.000182224,0.00905152,19.9128,396.52,2.81635e-06,298.27,300.284,0.282954,-1.65099e-10,-8517.65,-1.8113e-06,0.0765942,681.447,3.79299e+09
0.000185116,0.00905234,19.9115,396.467,2.81588e-06,298.245,300.286,0.282956,-1.64812e-10,-8489.35,-1.80815e-06,0.0775958,681.467,3.79299e+09
0.000188009,0.00905316,19.9102,396.414,2.8154e-06,298.22,300.288,0.282958,-1.64526e-10,-8461.15,-1.80502e-06,0.0785943,681.488,3.79299e+09
0.000190901,0.00905398,19.9088,396.362,2.81492e-06,298.196,300.29,0.28296,-1.64242e-10,-8433.04,-1.80189e-06,0.0795894,681.509,3.79299e+09
0.000193794,0.0090548,19.9075,396.309,2.81445e-06,298.171,300.291,0.282962,-1.63958e-10,-8405.03,-1.79879e-06,0.0805814,681.53,3.79299e+09
0.000196686,0.00905561,19.9062,396.257,2.81397e-06,298.147,300.293,0.282964,-1.63676e-10,-8377.12,-1.79569e-06,0.0815701,681.55,3.79299e+09
0.000199579,0.00905643,19.9049,396.204,2.8135e-06,298.123,300.295,0.282966,-1.63395e-10,-8349.31,-1.79261e-06,0.0825555,681.571,3.79299e+09
0.000202471,0.00905725,19.9036,396.152,2.81303e-06,298.099,300.297,0.282968,-1.63116e-10,-8321.59,-1.78954e-06,0.0835378,681.591,3.79299e+09
0.000205364,0.00905807,19.9023,396.1,2.81256e-06,298.075,300.299,0.28297,-1.62837e-10,-8293.97,-1.78649e-06,0.0845169,681.611,3.79299e+09
0.000208256,0.00905889,19.9009,396.048,2.81209e-06,298.051,300.301,0.282972,-1.6256e-10,-8266.44,-1.78345e-06,0.0854928,681.632,3.79299e+09
0.000211148,0.0090597,19.8996,395.996,2.81162e-06,298.027,300.303,0.282974,-1.62284e-10,-8239.01,-1.78042e-06,0.0864655,681.652,3.79299e+09
0.000214041,0.00906052,19.8983,395.944,2.81115e-06,298.003,300.305,0.282976,-1.62009e-10,-8211.67,-1.7774e-06,0.0874351,681.672,3.79299e+09
0.000216933,0.00906134,19.897,395.892,2.81068e-06,297.979,300.307,0.282978,-1.61736e-10,-8184.43,-1.7744e-06,0.0884016,681.692,3.79299e+09
0.000219826,0.00906216,19.8957,395.84,2.81021e-06,297.956,300.308,0.28298,-1.61463e-10,-8157.28,-1.77142e-06,0.0893649,681.712,3.79299e+09
0.000222718,0.00906298,19.8944,395.789,2.80974e-06,297.932,300.31,0.282982,-1.61192e-10,-8130.23,-1.76844e-06,0.0903251,681.732,3.79299e+09
0.000225611,0.00906379,19.8931,395.737,2.80928e-06,297.908,300.312,0.282984,-1.60922e-10,-8103.26,-1.76548e-06,0.0912821,681.752,3.79299e+09
0.000228503,0.00906461,19.8919,395.686,2.80881e-06,297.885,300.314,0.282986,-1.60654e-10,-8076.4,-1.76253e-06,0.0922361,681.772,3.79299e+09
0.000231396,0.00906543,19.8906,395.635,2.80835e-06,297.862,300.316,0.282988,-1.60386e-10,-8049.62,-1.75959e-06,0.093187,681.792,3.79299e+09
0.000234288,0.00906625,19.8893,395.583,2.80788e-06,297.838,300.318,0.28299,-1.6012e-10,-8022.93,-1.75667e-06,0.0941348,681.811,3.79299e+09
0.00023718,0.00906707,19.888,395.532,2.80742e-06,297.815,300.321,0.282993,-1.59854e-10,-7995.85,-1.75376e-06,0.0951161,681.831,3.79299e+09
0.000240073,0.00906788,19.8867,395.481,2.80696e-06,297.792,300.325,0.282997,-1.59591e-10,-7968.34,-1.75087e-06,0.0961326,681.851,3.79299e+09
0.000242965,0.0090687,19.8854,395.43,2.8065e-06,297.769,300.328,0.283002,-1.59328e-10,-7940.92,-1.74799e-06,0.097146,681.87,3.79299e+09
0.000245858,0.00906952,19.8842,395.38,2.80603e-06,297.746,300.332,0.283006,-1.59067e-10,-7913.6,-1.74512e-06,0.0981563,681.89,3.79299e+09
0.00024875,0.00907034,19.8829,395.329,2.80557e-06,297.723,300.336,0.283011,-1.58807e-10,-7886.36,-1.74227e-06,0.0991635,681.909,3.79299e+09
0.000251643,0.00907115,19.8816,395.278,2.80512e-06,297.7,300.34,0.283015,-1.58548e-10,-7859.22,-1.73943e-06,0.100168,681.928,3.79299e+09
0.000254535,0.00907197,19.8803,395.228,2.80466e-06,297.678,300.344,0.28302,-1.5829e-10,-7832.18,-1.7366e-06,0.101169,681.947,3.79299e+09
0.000257427,0.00907279,19.8791,395.177,2.8042e-06,297.655,300.347,0.283024,-1.58033e-10,-7805.22,-1.73378e-06,0.102167,681.967,3.79299e+09
0.00026032,0.00907361,19.8778,395.127,2.80374e-06,297.632,300.351,0.283029,-1.57778e-10,-7778.35,-1.73098e-06,0.103161,681.986,3.79299e+09
0.000263212,0.00907443,19.8765,395.077,2.80329e-06,297.61,300.355,0.283033,-1.57523e-10,-7751.58,-1.72819e-06,0.104153,682.005,3.79299e+09
0.000266105,0.00907524,19.8753,395.027,2.80283e-06,297.587,300.359,0.283038,-1.5727e-10,-7724.9,-1.72541e-06,0.105142,682.024,3.79299e+09
0.000268997,0.00907606,19.874,394.977,2.80237e-06,297.565,300.363,0.283042,-1.57018e-10,-7698.3,-1.72264e-06,0.106128,682.043,3.79299e+09
0.00027189,0.00907688,19.8728,394.927,2.80192e-06,297.543,300.366,0.283047,-1.56767e-10,-7671.8,-1.71989e-06,0.10711,682.061,3.79299e+09
0.000274782,0.0090777,19.8715,394.877,2.80147e-06,297.521,300.37,0.283051,-1.56517e-10,-7645.39,-1.71715e-06,0.10809,682.08,3.79299e+09
0.000277675,0.00907852,19.8703,394.827,2.80101e-06,297.499,300.374,0.283056,-1.56268e-10,-7619.06,-1.71442e-06,0.109067,682.099,3.79299e+09
0.000280567,0.00907933,19.869,394.777,2.80056e-06,297.476,300.378,0.28306,-1.5602e-10,-7592.82,-1.7117e-06,0.11004,682.117,3.79299e+09
0.000283459,0.00908015,19.8678,394.728,2.80011e-06,297.455,300.382,0.283065,-1.55774e-10,-7566.67,-1.70899e-06,0.111011,682.136,3.79299e+09
0.000286352,0.00908097,19.8665,394.678,2.79966e-06,297.433,300.385,0.283069,-1.55528e-10,-7540.61,-1.7063e-06,0.111979,682.155,3.79299e+09
0.000289244,0.00908179,19.8653,394.629,2.79921e-06,297.411,300.389,0.283074,-1.55284e-10,-7514.64,-1.70362e-06,0.112944,682.173,3.79299e+09
0.000292137,0.00908261,19.864,394.58,2.79876e-06,297.389,300.393,0.283078,-1.5504e-10,-7488.76,-1.70095e-06,0.113906,682.191,3.79299e+09
0.000295029,0.00908342,19.8628,394.531,2.79831e-06,297.367,300.397,0.283083,-1.54798e-10,-7462.96,-1.69829e-06,0.114865,682.21,3.79299e+09
0.000297922,0.00908424,19.8616,394.481,2.79787e-06,297.346,300.401,0.283087,-1.54557e-10,-7437.25,-1.69564e-06,0.115821,682.228,3.79299e+09
0.000300814,0.00908506,19.8603,394.432,2.79742e-06,297.324,300.404,0.283092,-1.54317e-10,-7411.62,-1.69301e-06,0.116774,682.246,3.79299e+09
0.000303707,0.00908588,19.8591,394.383,2.79697e-06,297.303,300.408,0.283096,-1.54078e-10,-7386.08,-1.69039e-06,0.117724,682.264,3.79299e+09
0.000306599,0.0090867,19.8579,394.335,2.79653e-06,297.282,300.412,0.283101,-1.5384e-10,-7360.63,-1.68778e-06,0.118671,682.282,3.79299e+09
0.000309491,0.00908751,19.8566,394.286,2.79608e-06,297.26,300.416,0.283105,-1.53603e-10,-7335.26,-1.68518e-06,0.119616,682.3,3.79299e+09
0.000312384,0.00908833,19.8554,394.237,2.79564e-06,297.239,300.42,0.28311,-1.53367e-10,-7309.98,-1.68259e-06,0.120557,682.318,3.79299e+09
0.000315276,0.00908915,19.8542,394.189,2.79519e-06,297.218,300.423,0.283114,-1.53132e-10,-7284.78,-1.68001e-06,0.121496,682.336,3.79299e+09
0.000318169,0.00908997,19.853,394.14,2.79475e-06,297.197,300.427,0.283119,-1.52898e-10,-7259.66,-1.67745e-06,0.122432,682.354,3.79299e+09
0.000321061,0.00909079,19.8517,394.092,2.79431e-06,297.176,300.431,0.283123,-1.52665e-10,-7234.63,-1.67489e-06,0.123365,682.372,3.79299e+09
0.000323954,0.0090916,19.8505,394.043,2.79387e-06,297.155,300.435,0.283128,-1.52434e-10,-7209.68,-1.67235e-06,0.124295,682.389,3.79299e+09
0.000326846,0.00909242,19.8493,393.995,2.79343e-06,297.134,300.439,0.283132,-1.52203e-10,-7184.82,-1.66982e-06,0.125222,682.407,3.79299e+09
0.000329739,0.00909324,19.8481,393.947,2.79299e-06,297.113,300.443,0.283137,-1.51973e-10,-7160.04,-1.6673e-06,0.126147,682.424,3.79299e+09
0.000332631,0.00909406,19.8469,393.899,2.79255e-06,297.093,300.446,0.283141,-1.51744e-10,-7135.34,-1.66479e-06,0.127069,682.442,3.79299e+09
0.000335523,0.00909488,19.8457,393.851,2.79211e-06,297.072,300.45,0.283146,-1.51517e-10,-7110.72,-1.66229e-06,0.127988,682.459,3.79299e+09
0.000338416,0.00909569,19.8445,393.803,2.79167e-06,297.051,300.454,0.28315,-1.5129e-10,-7086.19,-1.6598e-06,0.128904,682.477,3.79299e+09
0.000341308,0.00909651,19.8433,393.755,2.79123e-06,297.031,300.458,0.283155,-1.51064e-10,-7061.74,-1.65733e-06,0.129817,682.494,3.79299e+09
0.000344201,0.00909733,19.8421,393.707,2.79079e-06,297.01,300.462,0.283159,-1.50839e-10,-7037.37,-1.65486e-06,0.130728,682.511,3.79299e+09
0.000347093,0.00909815,19.8409,393.66,2.79036e-06,296.99,300.465,0.283164,-1.50616e-10,-7013.08,-1.6524e-06,0.131636,682.529,3.79299e+09
0.000349986,0.00909897,19.8397,393.612,2.78992e-06,296.97,300.469,0.283168,-1.50393e-10,-6988.87,-1.64996e-06,0.132541,682.546,3.79299e+09
0.000352878,0.00909978,19.8385,393.565,2.78949e-06,296.95,300.473,0.283173,-1.50171e-10,-6964.74,-1.64753e-06,0.133444,682.563,3.79299e+09
0.000355771,0.0091006,19.8373,393.517,2.78905e-06,296.929,300.477,0.283177,-1.4995e-10,-6940.69,-1.6451e-06,0.134343,682.58,3.79299e+09
0.000358663,0.00910142,19.8361,393.47,2.78862e-06,296.909,300.481,0.283182,-1.4973e-10,-6916.72,-1.64269e-06,0.13524,682.597,3.79299e+09
0.000361555,0.00910224,19.8349,393.423,2.78819e-06,296.889,300.484,0.283186,-1.49511e-10,-6892.83,-1.64029e-06,0.136135,682.614,3.79299e+09
0.000364448,0.00910306,19.8337,393.376,2.78775e-06,296.869,300.488,0.283191,-1.49293e-10,-6869.02,-1.6379e-06,0.137026,682.63,3.79299e+09
0.00036734,0.00910387,19.8325,393.329,2.78732e-06,296.85,300.492,0.283195,-1.49076e-10,-6845.29,-1.63552e-06,0.137915,682.647,3.79299e+09
0.000370233,0.00910469,19.8313,393.282,2.78689e-06,296.83,300.496,0.2832,-1.4886e-10,-6821.64,-1.63315e-06,0.138801,682.664,3.79299e+09
0.000373125,0.00910551,19.8301,393.235,2.78646e-06,296.81,300.5,0.283204,-1.48645e-10,-6798.07,-1.63078e-06,0.139685,682.681,3.79299e+09
0.000376018,0.00910633,19.829,393.188,2.78603e-06,296.79,300.503,0.283209,-1.48431e-10,-6774.57,-1.62843e-06,0.140566,682.697,3.79299e+09
0.00037891,0.00910715,19.8278,393.141,2.7856e-06,296.771,300.507,0.283213,-1.48218e-10,-6751.15,-1.62609e-06,0.141444,682.714,3.79299e+09
0.000381803,0.00910797,19.8266,393.094,2.78517e-06,296.751,300.511,0.283218,-1.48005e-10,-6727.81,-1.62376e-06,0.14232,682.73,3.79299e+09
0.000384695,0.00910878,19.8254,393.048,2.78474e-06,296.732,300.515,0.283222,-1.47794e-10,-6704.55,-1.62145e-06,0.143193,682.747,3.79299e+09
0.000387587,0.0091096,19.8243,393.001,2.78432e-06,296.712,300.519,0.283227,-1.47583e-10,-6681.36,-1.61914e-06,0.144064,682.763,3.79299e+09
0.00039048,0.00911042,19.8231,392.955,2.78389e-06,296.693,300.522,0.283231,-1.47374e-10,-6658.25,-1.61684e-06,0.144931,682.779,3.79299e+09
0.000393372,0.00911124,19.8219,392.909,2.78346e-06,296.674,300.526,0.283236,-1.47165e-10,-6635.22,-1.61455e-06,0.145797,682.796,3.79299e+09
0.000396265,0.00911206,19.8208,392.862,2.78304e-06,296.655,300.53,0.28324,-1.46957e-10,-6612.26,-1.61227e-06,0.146659,682.812,3.79299e+09
0.000399157,0.00911287,19.8196,392.816,2.78261e-06,296.635,300.534,0.283245,-1.4675e-10,-6589.38,-1.61e-06,0.147519,682.828,3.79299e+09
0.00040205,0.00911369,19.8184,392.77,2.78219e-06,296.616,300.538,0.283249,-1.46544e-10,-6566.57,-1.60774e-06,0.148377,682.844,3.79299e+09
0.000404942,0.00911451,19.8173,392.724,2.78176e-06,296.597,300.541,0.283254,-1.46339e-10,-6543.84,-1.60549e-06,0.149232,682.86,3.79299e+09
0.000407835,0.00911533,19.8161,392.678,2.78134e-06,296.578,300.545,0.283258,-1.46135e-10,-6521.18,-1.60325e-06,0.150084,682.876,3.79299e+09
0.000410727,0.00911615,19.8149,392.632,2.78092e-06,296.56,300.549,0.283263,-1.45931e-10,-6498.6,-1.60101e-06,0.150934,682.892,3.79299e+09
