# t [s], xp [m], d [micron], d^2 [micron^2], mp [mg], Tp [K], Tg [K], ug [m/s], mtfd, htfd, Sm [kg/m3s], Sh [J/m3s], rho[kg/m3s], Mliquid
0,0.009,20,400,2.84829e-06,300,300.163,0.280912,0,0,0,0,679.979,3.76755e+09
2.9048e-06,0.00900082,20.0006,400.026,2.84775e-06,299.969,300.165,0.280914,-1.85714e-10,-10483.7,-2.03245e-06,0.00746925,680.005,3.76755e+09
5.8096e-06,0.00900163,19.9991,399.965,2.84721e-06,299.939,300.167,0.280916,-1.8533e-10,-10448.2,-2.02826e-06,0.00870132,680.031,3.76755e+09
8.71441e-06,0.00900245,19.9976,399.905,2.84667e-06,299.909,300.169,0.280918,-1.84949e-10,-10413,-2.02408e-06,0.00992921,680.057,3.76755e+09
1.16192e-05,0.00900326,19.9961,399.844,2.84613e-06,299.878,300.171,0.28092,-1.84569e-10,-10377.8,-2.01992e-06,0.0111529,680.083,3.76755e+09
1.4524e-05,0.00900408,19.9946,399.784,2.8456e-06,299.848,300.173,0.280922,-1.84191e-10,-10342.8,-2.01579e-06,0.0123725,680.108,3.76755e+09
1.74288e-05,0.00900489,19.9931,399.724,2.84506e-06,299.818,300.174,0.280924,-1.83815e-10,-10307.9,-2.01167e-06,0.0135879,680.134,3.76755e+09
2.03336e-05,0.00900571,19.9916,399.664,2.84453e-06,299.788,300.176,0.280926,-1.83441e-10,-10273.1,-2.00757e-06,0.0147992,680.159,3.76755e+09
2.32384e-05,0.00900653,19.9901,399.604,2.844e-06,299.758,300.178,0.280928,-1.83068e-10,-10238.4,-2.0035e-06,0.0160063,680.184,3.76755e+09
2.61432e-05,0.00900734,19.9886,399.544,2.84347e-06,299.729,300.18,0.28093,-1.82697e-10,-10203.9,-1.99944e-06,0.0172094,680.21,3.76755e+09
2.9048e-05,0.00900816,19.9871,399.485,2.84293e-06,299.699,300.182,0.280932,-1.82328e-10,-10169.5,-1.9954e-06,0.0184084,680.235,3.76755e+09
3.19528e-05,0.00900897,19.9856,399.425,2.8424e-06,299.67,300.184,0.280934,-1.81961e-10,-10135.2,-1.99138e-06,0.0196034,680.26,3.76755e+09
3.48576e-05,0.00900979,19.9841,399.366,2.84188e-06,299.64,300.186,0.280936,-1.81595e-10,-10101.1,-1.98737e-06,0.0207943,680.285,3.76755e+09
3.77624e-05,0.00901061,19.9827,399.307,2.84135e-06,299.611,300.187,0.280938,-1.81231e-10,-10067,-1.98339e-06,0.0219811,680.31,3.76755e+09
4.06672e-05,0.00901142,19.9812,399.248,2.84082e-06,299.581,300.189,0.28094,-1.80869e-10,-10033.1,-1.97943e-06,0.023164,680.335,3.76755e+09
4.3572e-05,0.00901224,19.9797,399.189,2.8403e-06,299.552,300.191,0.280942,-1.80508e-10,-9999.34,-1.97548e-06,0.0243429,680.359,3.76755e+09
4.64768e-05,0.00901305,19.9782,399.13,2.83977e-06,299.523,300.193,0.280944,-1.80149e-10,-9965.68,-1.97155e-06,0.0255178,680.384,3.76755e+09
4.93816e-05,0.00901387,19.9768,399.072,2.83925e-06,299.494,300.195,0.280946,-1.79792e-10,-9932.14,-1.96764e-06,0.0266887,680.408,3.76755e+09
5.22864e-05,0.00901468,19.9753,399.013,2.83873e-06,299.465,300.197,0.280948,-1.79437e-10,-9898.72,-1.96375e-06,0.0278557,680.433,3.76755e+09
5.51912e-05,0.0090155,19.9739,398.955,2.83821e-06,299.437,300.199,0.28095,-1.79083e-10,-9865.42,-1.95988e-06,0.0290187,680.457,3.76755e+09
5.8096e-05,0.00901632,19.9724,398.896,2.83769e-06,299.408,300.201,0.280952,-1.7873e-10,-9832.25,-1.95603e-06,0.0301779,680.482,3.76755e+09
6.10008e-05,0.00901713,19.9709,398.838,2.83717e-06,299.38,300.202,0.280954,-1.7838e-10,-9799.19,-1.95219e-06,0.0313331,680.506,3.76755e+09
6.39056e-05,0.00901795,19.9695,398.78,2.83665e-06,299.351,300.204,0.280956,-1.78031e-10,-9766.25,-1.94837e-06,0.0324845,680.53,3.76755e+09
6.68104e-05,0.00901876,19.968,398.722,2.83613e-06,299.323,300.206,0.280958,-1.77684e-10,-9733.42,-1.94457e-06,0.0336319,680.554,3.76755e+09
6.97152e-05,0.00901958,19.9666,398.665,2.83562e-06,299.294,300.208,0.28096,-1.77338e-10,-9700.72,-1.94079e-06,0.0347756,680.578,3.76755e+09
7.262e-05,0.00902039,19.9651,398.607,2.8351e-06,299.266,300.21,0.280962,-1.76994e-10,-9668.13,-1.93702e-06,0.0359154,680.602,3.76755e+09
7.55248e-05,0.00902121,19.9637,398.55,2.83459e-06,299.238,300.212,0.280964,-1.76651e-10,-9635.66,-1.93327e-06,0.0370514,680.626,3.76755e+09
7.84296e-05,0.00902203,19.9623,398.492,2.83407e-06,299.21,300.214,0.280966,-1.7631e-10,-9603.31,-1.92954e-06,0.0381835,680.65,3.76755e+09
8.13344e-05,0.00902284,19.9608,398.435,2.83356e-06,299.182,300.215,0.280968,-1.75971e-10,-9571.07,-1.92583e-06,0.0393119,680.673,3.76755e+09
8.42393e-05,0.00902366,19.9594,398.378,2.83305e-06,299.154,300.217,0.28097,-1.75633e-10,-9538.95,-1.92213e-06,0.0404365,680.697,3.76755e+09
8.71441e-05,0.00902447,19.958,398.321,2.83254e-06,299.127,300.219,0.280972,-1.75297e-10,-9506.94,-1.91845e-06,0.0415573,680.72,3.76755e+09
9.00489e-05,0.00902529,19.9566,398.264,2.83203e-06,299.099,300.221,0.280974,-1.74962e-10,-9475.05,-1.91479e-06,0.0426744,680.744,3.76755e+09
9.29537e-05,0.00902611,19.9551,398.207,2.83152e-06,299.072,300.223,0.280976,-1.74629e-10,-9443.27,-1.91114e-06,0.0437878,680.767,3.76755e+09
9.58585e-05,0.00902692,19.9537,398.151,2.83101e-06,299.044,300.225,0.280978,-1.74298e-10,-9411.6,-1.90751e-06,0.0448975,680.79,3.76755e+09
9.87633e-05,0.00902774,19.9523,398.094,2.83051e-06,299.017,300.227,0.280979,-1.73968e-10,-9380.05,-1.9039e-06,0.0460034,680.813,3.76755e+09
0.000101668,0.00902855,19.9509,398.038,2.83e-06,298.99,300.228,0.280981,-1.73639e-10,-9348.61,-1.90031e-06,0.0471057,680.837,3.76755e+09
0.000104573,0.00902937,19.9495,397.981,2.8295e-06,298.962,300.23,0.280983,-1.73312e-10,-9317.28,-1.89673e-06,0.0482042,680.86,3.76755e+09
0.000107478,0.00903018,19.9481,397.925,2.829e-06,298.935,300.232,0.280985,-1.72986e-10,-9286.06,-1.89316e-06,0.0492992,680.882,3.76755e+09
0.000110382,0.009031,19.9467,397.869,2.82849e-06,298.908,300.234,0.280987,-1.72662e-10,-9254.95,-1.88962e-06,0.0503904,680.905,3.76755e+09
0.000113287,0.00903182,19.9453,397.813,2.82799e-06,298.882,300.236,0.280989,-1.7234e-10,-9223.96,-1.88609e-06,0.0514781,680.928,3.76755e+09
0.000116192,0.00903263,19.9439,397.758,2.82749e-06,298.855,300.238,0.280991,-1.72019e-10,-9193.07,-1.88257e-06,0.0525621,680.951,3.76755e+09
0.000119097,0.00903345,19.9425,397.702,2.82699e-06,298.828,300.24,0.280993,-1.71699e-10,-9162.29,-1.87907e-06,0.0536426,680.973,3.76755e+09
0.000122002,0.00903426,19.9411,397.646,2.82649e-06,298.801,300.241,0.280995,-1.71381e-10,-9131.63,-1.87559e-06,0.0547194,680.996,3.76755e+09
0.000124906,0.00903508,19.9397,397.591,2.82599e-06,298.775,300.243,0.280997,-1.71064e-10,-9101.07,-1.87212e-06,0.0557927,681.018,3.76755e+09
0.000127811,0.00903589,19.9383,397.536,2.8255e-06,298.748,300.245,0.280999,-1.70749e-10,-9070.61,-1.86867e-06,0.0568624,681.041,3.76755e+09
0.000130716,0.00903671,19.9369,397.48,2.825e-06,298.722,300.247,0.281001,-1.70435e-10,-9040.27,-1.86524e-06,0.0579286,681.063,3.76755e+09
0.000133621,0.00903753,19.9355,397.425,2.82451e-06,298.696,300.249,0.281003,-1.70122e-10,-9010.04,-1.86182e-06,0.0589912,681.085,3.76755e+09
0.000136526,0.00903834,19.9342,397.37,2.82401e-06,298.67,300.251,0.281005,-1.69811e-10,-8979.91,-1.85842e-06,0.0600504,681.108,3.76755e+09
0.00013943,0.00903916,19.9328,397.315,2.82352e-06,298.644,300.253,0.281007,-1.69502e-10,-8949.88,-1.85503e-06,0.061106,681.13,3.76755e+09
0.000142335,0.00903997,19.9314,397.261,2.82303e-06,298.618,300.254,0.281009,-1.69193e-10,-8919.97,-1.85165e-06,0.0621581,681.152,3.76755e+09
0.00014524,0.00904079,19.93,397.206,2.82253e-06,298.592,300.256,0.281011,-1.68887e-10,-8890.15,-1.8483e-06,0.0632068,681.174,3.76755e+09
0.000148145,0.00904161,19.9287,397.152,2.82204e-06,298.566,300.258,0.281013,-1.68581e-10,-8860.45,-1.84495e-06,0.064252,681.196,3.76755e+09
0.00015105,0.00904242,19.9273,397.097,2.82155e-06,298.54,300.26,0.281015,-1.68277e-10,-8830.84,-1.84162e-06,0.0652937,681.217,3.76755e+09
0.000153954,0.00904324,19.9259,397.043,2.82107e-06,298.514,300.262,0.281017,-1.67974e-10,-8801.35,-1.83831e-06,0.066332,681.239,3.76755e+09
0.000156859,0.00904405,19.9246,396.989,2.82058e-06,298.489,300.264,0.281019,-1.67673e-10,-8771.95,-1.83501e-06,0.0673669,681.261,3.76755e+09
0.000159764,0.00904487,19.9232,396.935,2.82009e-06,298.463,300.266,0.281021,-1.67373e-10,-8742.66,-1.83173e-06,0.0683984,681.282,3.76755e+09
0.000162669,0.00904568,19.9219,396.881,2.8196e-06,298.438,300.267,0.281023,-1.67074e-10,-8713.47,-1.82846e-06,0.0694264,681.304,3.76755e+09
0.000165574,0.0090465,19.9205,396.827,2.81912e-06,298.413,300.269,0.281025,-1.66777e-10,-8684.39,-1.82521e-06,0.0704511,681.325,3.76755e+09
0.000168479,0.00904732,19.9192,396.773,2.81863e-06,298.387,300.271,0.281027,-1.66481e-10,-8655.4,-1.82197e-06,0.0714725,681.347,3.76755e+09
0.000171383,0.00904813,19.9178,396.719,2.81815e-06,298.362,300.273,0.281029,-1.66187e-10,-8626.52,-1.81875e-06,0.0724904,681.368,3.76755e+09
0.000174288,0.00904895,19.9165,396.666,2.81767e-06,298.337,300.275,0.281031,-1.65893e-10,-8597.74,-1.81554e-06,0.0735051,681.389,3.76755e+09
0.000177193,0.00904976,19.9151,396.612,2.81719e-06,298.312,300.277,0.281033,-1.65601e-10,-8569.06,-1.81234e-06,0.0745164,681.41,3.76755e+09
0.000180098,0.00905058,19.9138,396.559,2.81671e-06,298.287,300.279,0.281035,-1.6531e-10,-8540.47,-1.80916e-06,0.0755243,681.431,3.76755e+09
0.000183003,0.0090514,19.9125,396.506,2.81623e-06,298.263,300.28,0.281037,-1.65021e-10,-8511.99,-1.80599e-06,0.076529,681.452,3.76755e+09
0.000185907,0.00905221,19.9111,396.453,2.81575e-06,298.238,300.282,0.281039,-1.64733e-10,-8483.61,-1.80284e-06,0.0775304,681.473,3.76755e+09
0.000188812,0.00905303,19.9098,396.4,2.81527e-06,298.213,300.284,0.281041,-1.64446e-10,-8455.33,-1.7997e-06,0.0785285,681.494,3.76755e+09
0.000191717,0.00905384,19.9085,396.347,2.81479e-06,298.189,300.286,0.281043,-1.64161e-10,-8427.15,-1.79657e-06,0.0795233,681.515,3.76755e+09
0.000194622,0.00905466,19.9071,396.294,2.81431e-06,298.164,300.288,0.281045,-1.63876e-10,-8399.06,-1.79346e-06,0.0805149,681.536,3.76755e+09
0.000197527,0.00905547,19.9058,396.241,2.81384e-06,298.14,300.29,0.281047,-1.63593e-10,-8371.07,-1.79036e-06,0.0815032,681.556,3.76755e+09
0.000200431,0.00905629,19.9045,396.189,2.81336e-06,298.115,300.292,0.281049,-1.63311e-10,-8343.18,-1.78728e-06,0.0824883,681.577,3.76755e+09
0.000203336,0.00905711,19.9032,396.136,2.81289e-06,298.091,300.293,0.281051,-1.63031e-10,-8315.39,-1.78421e-06,0.0834702,681.597,3.76755e+09
0.000206241,0.00905792,19.9019,396.084,2.81241e-06,298.067,300.295,0.281053,-1.62752e-10,-8287.69,-1.78115e-06,0.0844488,681.618,3.76755e+09
0.000209146,0.00905874,19.9005,396.032,2.81194e-06,298.043,300.297,0.281055,-1.62474e-10,-8260.09,-1.77811e-06,0.0854243,681.638,3.76755e+09
0.000212051,0.00905955,19.8992,395.979,2.81147e-06,298.019,300.299,0.281057,-1.62197e-10,-8232.58,-1.77508e-06,0.0863966,681.659,3.76755e+09
0.000214955,0.00906037,19.8979,395.927,2.811e-06,297.995,300.301,0.281058,-1.61921e-10,-8205.17,-1.77207e-06,0.0873658,681.679,3.76755e+09
0.00021786,0.00906119,19.8966,395.875,2.81053e-06,297.971,300.303,0.28106,-1.61647e-10,-8177.86,-1.76906e-06,0.0883317,681.699,3.76755e+09
0.000220765,0.009062,19.8953,395.823,2.81006e-06,297.948,300.305,0.281062,-1.61374e-10,-8150.64,-1.76607e-06,0.0892946,681.719,3.76755e+09
0.00022367,0.00906282,19.894,395.772,2.80959e-06,297.924,300.307,0.281064,-1.61102e-10,-8123.51,-1.7631e-06,0.0902542,681.739,3.76755e+09
0.000226575,0.00906363,19.8927,395.72,2.80912e-06,297.9,300.308,0.281066,-1.60831e-10,-8096.48,-1.76013e-06,0.0912108,681.759,3.76755e+09
0.000229479,0.00906445,19.8914,395.668,2.80865e-06,297.877,300.31,0.281068,-1.60561e-10,-8069.54,-1.75718e-06,0.0921643,681.779,3.76755e+09
0.000232384,0.00906527,19.8901,395.617,2.80819e-06,297.853,300.312,0.28107,-1.60293e-10,-8042.7,-1.75425e-06,0.0931146,681.799,3.76755e+09
0.000235289,0.00906608,19.8888,395.566,2.80772e-06,297.83,300.314,0.281072,-1.60026e-10,-8015.94,-1.75132e-06,0.0940619,681.819,3.76755e+09
0.000238194,0.0090669,19.8875,395.514,2.80726e-06,297.807,300.316,0.281075,-1.5976e-10,-7989,-1.74841e-06,0.0950272,681.838,3.76755e+09
0.000241099,0.00906771,19.8863,395.463,2.80679e-06,297.783,300.32,0.28108,-1.59495e-10,-7961.42,-1.74552e-06,0.096043,681.858,3.76755e+09
0.000244003,0.00906853,19.885,395.412,2.80633e-06,297.76,300.324,0.281084,-1.59232e-10,-7933.94,-1.74264e-06,0.0970556,681.877,3.76755e+09
0.000246908,0.00906934,19.8837,395.361,2.80587e-06,297.737,300.328,0.281089,-1.5897e-10,-7906.55,-1.73977e-06,0.0980651,681.897,3.76755e+09
0.000249813,0.00907016,19.8824,395.31,2.80541e-06,297.714,300.331,0.281093,-1.58709e-10,-7879.25,-1.73691e-06,0.0990714,681.916,3.76755e+09
0.000252718,0.00907098,19.8811,395.259,2.80494e-06,297.691,300.335,0.281098,-1.58449e-10,-7852.04,-1.73407e-06,0.100075,681.936,3.76755e+09
0.000255623,0.00907179,19.8799,395.209,2.80448e-06,297.669,300.339,0.281102,-1.58191e-10,-7824.93,-1.73124e-06,0.101075,681.955,3.76755e+09
0.000258527,0.00907261,19.8786,395.158,2.80402e-06,297.646,300.343,0.281107,-1.57933e-10,-7797.91,-1.72842e-06,0.102072,681.974,3.76755e+09
0.000261432,0.00907342,19.8773,395.108,2.80357e-06,297.623,300.347,0.281111,-1.57677e-10,-7770.98,-1.72562e-06,0.103066,681.993,3.76755e+09
0.000264337,0.00907424,19.876,395.057,2.80311e-06,297.601,300.35,0.281116,-1.57422e-10,-7744.15,-1.72282e-06,0.104057,682.012,3.76755e+09
0.000267242,0.00907506,19.8748,395.007,2.80265e-06,297.578,300.354,0.28112,-1.57168e-10,-7717.4,-1.72004e-06,0.105045,682.032,3.76755e+09
0.000270147,0.00907587,19.8735,394.957,2.80219e-06,297.556,300.358,0.281125,-1.56915e-10,-7690.75,-1.71728e-06,0.106029,682.05,3.76755e+09
0.000273051,0.00907669,19.8723,394.907,2.80174e-06,297.533,300.362,0.281129,-1.56663e-10,-7664.18,-1.71452e-06,0.107011,682.069,3.76755e+09
0.000275956,0.0090775,19.871,394.857,2.80128e-06,297.511,300.365,0.281134,-1.56412e-10,-7637.71,-1.71178e-06,0.10799,682.088,3.76755e+09
0.000278861,0.00907832,19.8697,394.807,2.80083e-06,297.489,300.369,0.281138,-1.56163e-10,-7611.33,-1.70905e-06,0.108966,682.107,3.76755e+09
0.000281766,0.00907914,19.8685,394.757,2.80038e-06,297.467,300.373,0.281143,-1.55915e-10,-7585.03,-1.70633e-06,0.109939,682.126,3.76755e+09
0.000284671,0.00907995,19.8672,394.707,2.79992e-06,297.445,300.377,0.281147,-1.55667e-10,-7558.82,-1.70362e-06,0.110908,682.144,3.76755e+09
0.000287575,0.00908077,19.866,394.657,2.79947e-06,297.423,300.381,0.281152,-1.55421e-10,-7532.71,-1.70093e-06,0.111875,682.163,3.76755e+09
0.00029048,0.00908158,19.8647,394.608,2.79902e-06,297.401,300.384,0.281156,-1.55176e-10,-7506.68,-1.69825e-06,0.112839,682.181,3.76755e+09
0.000293385,0.0090824,19.8635,394.558,2.79857e-06,297.379,300.388,0.281161,-1.54932e-10,-7480.73,-1.69558e-06,0.1138,682.2,3.76755e+09
0.00029629,0.00908322,19.8622,394.509,2.79812e-06,297.357,300.392,0.281165,-1.54689e-10,-7454.88,-1.69292e-06,0.114758,682.218,3.76755e+09
0.000299195,0.00908403,19.861,394.46,2.79767e-06,297.336,300.396,0.28117,-1.54447e-10,-7429.11,-1.69027e-06,0.115713,682.236,3.76755e+09
0.000302099,0.00908485,19.8598,394.41,2.79722e-06,297.314,300.399,0.281174,-1.54207e-10,-7403.43,-1.68764e-06,0.116665,682.255,3.76755e+09
0.000305004,0.00908566,19.8585,394.361,2.79677e-06,297.293,300.403,0.281179,-1.53967e-10,-7377.84,-1.68501e-06,0.117614,682.273,3.76755e+09
0.000307909,0.00908648,19.8573,394.312,2.79632e-06,297.271,300.407,0.281183,-1.53728e-10,-7352.33,-1.6824e-06,0.11856,682.291,3.76755e+09
0.000310814,0.00908729,19.8561,394.263,2.79588e-06,297.25,300.411,0.281188,-1.53491e-10,-7326.91,-1.6798e-06,0.119504,682.309,3.76755e+09
0.000313719,0.00908811,19.8548,394.214,2.79543e-06,297.229,300.415,0.281192,-1.53254e-10,-7301.57,-1.67721e-06,0.120444,682.327,3.76755e+09
0.000316623,0.00908893,19.8536,394.166,2.79499e-06,297.207,300.418,0.281197,-1.53019e-10,-7276.32,-1.67464e-06,0.121382,682.345,3.76755e+09
0.000319528,0.00908974,19.8524,394.117,2.79454e-06,297.186,300.422,0.281201,-1.52784e-10,-7251.16,-1.67207e-06,0.122316,682.363,3.76755e+09
0.000322433,0.00909056,19.8512,394.068,2.7941e-06,297.165,300.426,0.281206,-1.52551e-10,-7226.08,-1.66952e-06,0.123248,682.381,3.76755e+09
0.000325338,0.00909137,19.8499,394.02,2.79366e-06,297.144,300.43,0.28121,-1.52319e-10,-7201.08,-1.66697e-06,0.124177,682.398,3.76755e+09
0.000328243,0.00909219,19.8487,393.972,2.79321e-06,297.123,300.433,0.281215,-1.52087e-10,-7176.16,-1.66444e-06,0.125104,682.416,3.76755e+09
0.000331147,0.00909301,19.8475,393.923,2.79277e-06,297.102,300.437,0.281219,-1.51857e-10,-7151.33,-1.66192e-06,0.126027,682.434,3.76755e+09
0.000334052,0.00909382,19.8463,393.875,2.79233e-06,297.082,300.441,0.281224,-1.51628e-10,-7126.59,-1.65941e-06,0.126948,682.451,3.76755e+09
0.000336957,0.00909464,19.8451,393.827,2.79189e-06,297.061,300.445,0.281228,-1.51399e-10,-7101.92,-1.65691e-06,0.127865,682.469,3.76755e+09
0.000339862,0.00909545,19.8439,393.779,2.79145e-06,297.04,300.449,0.281233,-1.51172e-10,-7077.34,-1.65443e-06,0.12878,682.486,3.76755e+09
0.000342767,0.00909627,19.8427,393.731,2.79101e-06,297.02,300.452,0.281237,-1.50946e-10,-7052.84,-1.65195e-06,0.129693,682.503,3.76755e+09
0.000345671,0.00909709,19.8414,393.683,2.79057e-06,296.999,300.456,0.281242,-1.5072e-10,-7028.42,-1.64948e-06,0.130602,682.521,3.76755e+09
0.000348576,0.0090979,19.8402,393.635,2.79013e-06,296.979,300.46,0.281246,-1.50496e-10,-7004.09,-1.64703e-06,0.131509,682.538,3.76755e+09
0.000351481,0.00909872,19.839,393.587,2.7897e-06,296.959,300.464,0.281251,-1.50273e-10,-6979.83,-1.64458e-06,0.132413,682.555,3.76755e+09
0.000354386,0.00909953,19.8378,393.54,2.78926e-06,296.938,300.467,0.281255,-1.5005e-10,-6955.66,-1.64215e-06,0.133314,682.572,3.76755e+09
0.000357291,0.00910035,19.8366,393.492,2.78883e-06,296.918,300.471,0.28126,-1.49829e-10,-6931.57,-1.63973e-06,0.134212,682.589,3.76755e+09
0.000360195,0.00910117,19.8354,393.445,2.78839e-06,296.898,300.475,0.281264,-1.49608e-10,-6907.55,-1.63732e-06,0.135108,682.606,3.76755e+09
0.0003631,0.00910198,19.8342,393.397,2.78796e-06,296.878,300.479,0.281269,-1.49389e-10,-6883.62,-1.63491e-06,0.136001,682.623,3.76755e+09
0.000366005,0.0091028,19.8331,393.35,2.78752e-06,296.858,300.483,0.281273,-1.49171e-10,-6859.77,-1.63252e-06,0.136891,682.64,3.76755e+09
0.00036891,0.00910361,19.8319,393.303,2.78709e-06,296.838,300.486,0.281278,-1.48953e-10,-6835.99,-1.63014e-06,0.137779,682.657,3.76755e+09
0.000371815,0.00910443,19.8307,393.256,2.78666e-06,296.818,300.49,0.281282,-1.48736e-10,-6812.3,-1.62777e-06,0.138664,682.674,3.76755e+09
0.000374719,0.00910525,19.8295,393.209,2.78622e-06,296.798,300.494,0.281287,-1.48521e-10,-6788.68,-1.62541e-06,0.139546,682.691,3.76755e+09
0.000377624,0.00910606,19.8283,393.162,2.78579e-06,296.779,300.498,0.281291,-1.48306e-10,-6765.15,-1.62306e-06,0.140426,682.707,3.76755e+09
0.000380529,0.00910688,19.8271,393.115,2.78536e-06,296.759,300.501,0.281296,-1.48092e-10,-6741.69,-1.62072e-06,0.141303,682.724,3.76755e+09
0.000383434,0.00910769,19.8259,393.068,2.78493e-06,296.739,300.505,0.2813,-1.47879e-10,-6718.31,-1.61839e-06,0.142177,682.74,3.76755e+09
0.000386339,0.00910851,19.8248,393.021,2.7845e-06,296.72,300.509,0.281305,-1.47668e-10,-6695,-1.61607e-06,0.143049,682.757,3.76755e+09
0.000389243,0.00910933,19.8236,392.974,2.78407e-06,296.7,300.513,0.281309,-1.47457e-10,-6671.77,-1.61376e-06,0.143918,682.773,3.76755e+09
0.000392148,0.00911014,19.8224,392.928,2.78364e-06,296.681,300.517,0.281314,-1.47246e-10,-6648.63,-1.61147e-06,0.144785,682.79,3.76755e+09
0.000395053,0.00911096,19.8212,392.881,2.78322e-06,296.662,300.52,0.281318,-1.47037e-10,-6625.55,-1.60918e-06,0.145649,682.806,3.76755e+09
0.000397958,0.00911177,19.8201,392.835,2.78279e-06,296.642,300.524,0.281323,-1.46829e-10,-6602.56,-1.6069e-06,0.14651,682.822,3.76755e+09
0.000400863,0.00911259,19.8189,392.789,2.78236e-06,296.623,300.528,0.281327,-1.46622e-10,-6579.64,-1.60463e-06,0.147368,682.838,3.76755e+09
0.000403767,0.00911341,19.8177,392.742,2.78194e-06,296.604,300.532,0.281332,-1.46415e-10,-6556.79,-1.60237e-06,0.148225,682.854,3.76755e+09
0.000406672,0.00911422,19.8166,392.696,2.78151e-06,296.585,300.535,0.281336,-1.4621e-10,-6534.02,-1.60012e-06,0.149078,682.871,3.76755e+09
0.000409577,0.00911504,19.8154,392.65,2.78109e-06,296.566,300.539,0.281341,-1.46005e-10,-6511.33,-1.59788e-06,0.149929,682.887,3.76755e+09
0.000412482,0.00911586,19.8142,392.604,2.78066e-06,296.547,300.543,0.281345,-1.45801e-10,-6488.71,-1.59565e-06,0.150777,682.902,3.76755e+09
