# grid [m], ug [m/s], rhog, Tg [K], Yf, YO2, YOH, YCO, YCO2, phi_g, Sm, Sh, Syf
0,0.291555,1.21364,300,0.0817691,0.212991,2.05175e-21,9.65137e-15,1.33242e-14,0.800096,-1.05885,8026.2,0.40246
2.51256e-05,0.291546,1.21368,299.996,0.0818141,0.21298,2.77064e-21,1.31342e-14,1.81324e-14,0.800576,-2.26577,47391.3,0.861131
5.02513e-05,0.291553,1.21372,299.992,0.0818568,0.21297,3.7045e-23,1.78736e-14,2.46758e-14,0.801031,-2.13751,91441.4,0.812316
7.53769e-05,0.291559,1.21376,299.987,0.0818974,0.212961,-9.93114e-24,2.43238e-14,3.35812e-14,0.801464,-2.02116,132138,0.768048
0.000100503,0.291564,1.2138,299.981,0.0819361,0.212952,-9.15025e-24,3.31027e-14,4.57017e-14,0.801875,-1.91539,169748,0.727821
0.000125628,0.291567,1.21384,299.974,0.0819729,0.212943,-7.74112e-24,4.50512e-14,6.21984e-14,0.802268,-1.81907,204512,0.691199
0.000150754,0.291569,1.21389,299.967,0.0820081,0.212935,-6.299e-24,6.13142e-14,8.46518e-14,0.802644,-1.73119,236657,0.657801
0.000175879,0.29157,1.21394,299.959,0.0820419,0.212927,-4.77836e-24,8.345e-14,1.15213e-13,0.803004,-1.6509,266389,0.627293
0.000201005,0.29157,1.21399,299.95,0.0820743,0.21292,-3.10975e-24,1.1358e-13,1.56812e-13,0.803349,-1.57741,293895,0.599384
0.000226131,0.291569,1.21404,299.941,0.0821054,0.212912,-1.20161e-24,1.54592e-13,2.13436e-13,0.803682,-1.51007,319346,0.573818
0.000251256,0.291568,1.21409,299.932,0.0821354,0.212906,1.06769e-24,2.10419e-13,2.90512e-13,0.804001,-1.44828,342897,0.550369
0.000276382,0.291565,1.21414,299.922,0.0821644,0.212899,3.86067e-24,2.86411e-13,3.95431e-13,0.80431,-1.39151,364691,0.528834
0.000301508,0.291562,1.2142,299.912,0.0821923,0.212892,7.39566e-24,3.89857e-13,5.38254e-13,0.804608,-1.3393,384859,0.509037
0.000326633,0.291558,1.21425,299.901,0.0822194,0.212886,1.1967e-23,5.30677e-13,7.32677e-13,0.804897,-1.29124,403569,0.490818
0.000351759,0.291554,1.21431,299.89,0.0822457,0.21288,1.79728e-23,7.22379e-13,9.97349e-13,0.805177,-1.24694,420905,0.474036
0.000376884,0.291549,1.21437,299.879,0.0822711,0.212874,2.59519e-23,9.8335e-13,1.35766e-12,0.805449,-1.20608,436951,0.458564
0.00040201,0.291544,1.21443,299.867,0.0822959,0.212868,3.66357e-23,1.33863e-12,1.84818e-12,0.805713,-1.16836,451806,0.444288
0.000427136,0.291538,1.21449,299.855,0.08232,0.212863,5.1017e-23,1.82231e-12,2.51596e-12,0.80597,-1.13352,465557,0.431105
0.000452261,0.291532,1.21455,299.843,0.0823435,0.212857,7.04444e-23,2.4808e-12,3.42511e-12,0.806221,-1.10129,478285,0.418921
0.000477387,0.291525,1.21461,299.831,0.0823665,0.212852,9.67514e-23,3.3773e-12,4.66287e-12,0.806466,-1.07148,490065,0.407655
0.000502513,0.291518,1.21467,299.818,0.0823889,0.212847,1.32431e-22,4.59787e-12,6.34804e-12,0.806706,-1.04387,500964,0.397229
0.000527638,0.291511,1.21473,299.805,0.0824109,0.212842,1.80872e-22,6.25967e-12,8.64242e-12,0.80694,-1.01829,511048,0.387575
0.000552764,0.291503,1.21479,299.792,0.0824324,0.212837,2.46686e-22,8.52227e-12,1.17663e-11,0.80717,-0.994583,520377,0.378632
0.000577889,0.291495,1.21486,299.779,0.0824535,0.212832,3.36144e-22,1.16029e-11,1.60196e-11,0.807395,-0.972585,529002,0.37034
0.000603015,0.291487,1.21492,299.765,0.0824742,0.212827,4.57781e-22,1.57975e-11,2.18108e-11,0.807616,-0.95217,536975,0.362651
0.000628141,0.291478,1.21498,299.752,0.0824946,0.212822,6.23204e-22,2.15087e-11,2.96961e-11,0.807833,-0.933206,544339,0.355515
0.000653266,0.291469,1.21505,299.738,0.0825146,0.212818,8.4821e-22,2.92854e-11,4.04329e-11,0.808047,-0.915586,551143,0.34889
0.000678392,0.29146,1.21511,299.724,0.0825344,0.212813,1.15429e-21,3.98745e-11,5.50528e-11,0.808258,-0.899199,557419,0.342736
0.000703518,0.291451,1.21518,299.711,0.0825538,0.212808,1.57069e-21,5.42934e-11,7.49603e-11,0.808465,-0.883962,563214,0.337018
0.000728643,0.291442,1.21525,299.697,0.082573,0.212804,2.13721e-21,7.39276e-11,1.02068e-10,0.80867,-0.869778,568556,0.3317
0.000753769,0.291432,1.21531,299.682,0.0825919,0.2128,2.90801e-21,1.00664e-10,1.38982e-10,0.808872,-0.856568,573476,0.326754
0.000778894,0.291423,1.21538,299.668,0.0826106,0.212795,3.95681e-21,1.37072e-10,1.89249e-10,0.809071,-0.844265,578009,0.322153
0.00080402,0.291413,1.21544,299.654,0.0826291,0.212791,5.38395e-21,1.86652e-10,2.57702e-10,0.809269,-0.832791,582175,0.317867
0.000829146,0.291403,1.21551,299.64,0.0826474,0.212787,7.32602e-21,2.54169e-10,3.5092e-10,0.809464,-0.82209,586004,0.313875
0.000854271,0.291393,1.21558,299.625,0.0826655,0.212783,9.969e-21,3.46116e-10,4.77867e-10,0.809657,-0.812116,589528,0.310159
0.000879397,0.291383,1.21565,299.611,0.0826834,0.212778,1.35662e-20,4.71333e-10,6.50748e-10,0.809848,-0.802794,592752,0.306693
0.000904523,0.291372,1.21571,299.596,0.0827011,0.212774,1.84625e-20,6.41861e-10,8.8619e-10,0.810038,-0.794083,595703,0.303458
0.000929648,0.291362,1.21578,299.581,0.0827187,0.21277,2.51283e-20,8.74102e-10,1.20684e-09,0.810226,-0.785954,598411,0.300444
0.000954774,0.291351,1.21585,299.567,0.0827362,0.212766,3.42044e-20,1.19039e-09,1.64353e-09,0.810413,-0.778346,600879,0.297628
0.000979899,0.291341,1.21592,299.552,0.0827535,0.212762,4.65655e-20,1.62116e-09,2.23827e-09,0.810598,-0.77122,603124,0.294997
0.00100503,0.29133,1.21598,299.537,0.0827707,0.212758,6.34057e-20,2.20786e-09,3.04829e-09,0.810782,-0.764555,605172,0.29254
0.00103015,0.291319,1.21605,299.522,0.0827878,0.212754,8.63579e-20,3.00692e-09,4.15153e-09,0.810964,-0.758324,607042,0.290248
0.00105528,0.291308,1.21612,299.508,0.0828048,0.21275,1.17658e-19,4.09525e-09,5.65414e-09,0.811146,-0.752476,608730,0.288102
0.0010804,0.291298,1.21619,299.493,0.0828217,0.212746,1.60374e-19,5.57758e-09,7.70074e-09,0.811326,-0.74698,610246,0.286091
0.00110553,0.291287,1.21626,299.478,0.0828385,0.212742,2.18729e-19,7.5966e-09,1.04883e-08,0.811505,-0.741826,611616,0.28421
0.00113065,0.291276,1.21633,299.463,0.0828552,0.212739,2.98558e-19,1.03467e-08,1.42852e-08,0.811684,-0.736994,612853,0.282449
0.00115578,0.291265,1.21639,299.448,0.0828718,0.212735,4.07963e-19,1.40925e-08,1.94569e-08,0.811861,-0.732449,613957,0.280798
0.0011809,0.291254,1.21646,299.433,0.0828884,0.212731,5.5827e-19,1.91948e-08,2.65015e-08,0.812038,-0.728166,614935,0.279248
0.00120603,0.291243,1.21653,299.418,0.0829048,0.212727,7.65447e-19,2.61448e-08,3.60971e-08,0.812214,-0.724144,615810,0.277796
0.00123116,0.291232,1.2166,299.403,0.0829212,0.212723,1.05225e-18,3.56119e-08,4.9168e-08,0.812389,-0.720351,616580,0.276432
0.00125628,0.291221,1.21667,299.389,0.0829375,0.212719,1.45156e-18,4.85079e-08,6.6973e-08,0.812563,-0.716781,617263,0.275152
0.00128141,0.29121,1.21673,299.374,0.0829538,0.212716,2.01163e-18,6.6075e-08,9.12272e-08,0.812737,-0.713424,617873,0.273952
0.00130653,0.291199,1.2168,299.359,0.08297,0.212712,2.80469e-18,9.00053e-08,1.24267e-07,0.81291,-0.710238,618394,0.272819
0.00133166,0.291189,1.21687,299.345,0.0829861,0.212708,3.94113e-18,1.22605e-07,1.69276e-07,0.813083,-0.70723,618854,0.271754
0.00135678,0.291178,1.21693,299.331,0.0830022,0.212704,5.59365e-18,1.67014e-07,2.3059e-07,0.813254,-0.704394,619268,0.270752
0.00138191,0.291168,1.21699,299.317,0.0830182,0.2127,8.039e-18,2.27512e-07,3.14118e-07,0.813426,-0.701714,619653,0.269813
0.00140704,0.291158,1.21706,299.303,0.0830341,0.212696,1.17311e-17,3.0993e-07,4.27909e-07,0.813596,-0.699179,620020,0.268927
0.00143216,0.291149,1.21712,299.29,0.08305,0.212692,1.74311e-17,4.22211e-07,5.82932e-07,0.813766,-0.696792,620395,0.268097
0.00145729,0.291141,1.21717,299.278,0.0830658,0.212688,2.64411e-17,5.75178e-07,7.94127e-07,0.813936,-0.694533,620791,0.267317
0.00148241,0.291134,1.21722,299.268,0.0830815,0.212684,4.10272e-17,7.83575e-07,1.08185e-06,0.814104,-0.692406,621264,0.266589
0.00150754,0.291128,1.21727,299.258,0.0830971,0.212679,6.51901e-17,1.06749e-06,1.47385e-06,0.814272,-0.690416,621859,0.265912
0.00153266,0.291125,1.2173,299.251,0.0831125,0.212675,1.06077e-16,1.4543e-06,2.0079e-06,0.814438,-0.688552,622622,0.265282
0.00155779,0.291124,1.21733,299.247,0.0831278,0.212669,1.76573e-16,1.98129e-06,2.73549e-06,0.814604,-0.686829,623665,0.26471
0.00158291,0.291128,1.21733,299.247,0.0831428,0.212664,3.00082e-16,2.69925e-06,3.72677e-06,0.814767,-0.685264,625092,0.264201
0.00160804,0.291136,1.21732,299.252,0.0831575,0.212657,5.1935e-16,3.67741e-06,5.07728e-06,0.814929,-0.683872,627075,0.263758
0.00163317,0.291153,1.21727,299.265,0.0831719,0.21265,9.12789e-16,5.01003e-06,6.91719e-06,0.815087,-0.682683,629826,0.263397
0.00165829,0.291179,1.21718,299.287,0.0831857,0.212641,1.62471e-15,6.82553e-06,9.42379e-06,0.815242,-0.681748,633654,0.263138
0.00168342,0.291219,1.21704,299.324,0.0831987,0.212631,2.92141e-15,9.29877e-06,1.28385e-05,0.815391,-0.681116,639037,0.263
0.00170854,0.291278,1.21681,299.38,0.0832108,0.212618,5.29522e-15,1.26679e-05,1.74901e-05,0.815534,-0.680886,646530,0.263021
0.00173367,0.291363,1.21648,299.462,0.0832215,0.212602,9.65794e-15,1.72569e-05,2.38261e-05,0.815666,-0.681184,656827,0.263252
0.00175879,0.291483,1.216,299.579,0.0832303,0.212581,1.77005e-14,2.35069e-05,3.24552e-05,0.815786,-0.682178,670997,0.26376
0.00178392,0.291652,1.21531,299.745,0.0832366,0.212554,3.25632e-14,3.20175e-05,4.42055e-05,0.815887,-0.684087,690487,0.264634
0.00180905,0.291886,1.21436,299.976,0.0832395,0.212518,6.00851e-14,4.36035e-05,6.0202e-05,0.815964,-0.687247,717312,0.266007
0.00183417,0.292209,1.21304,300.298,0.0832375,0.212471,1.11139e-13,5.93711e-05,8.19719e-05,0.816006,-0.692098,754228,0.268053
0.0018593,0.292655,1.21121,300.742,0.0832291,0.212409,2.06008e-13,8.08195e-05,0.000111585,0.816001,-0.699255,805035,0.271017
0.00188442,0.293267,1.20871,301.354,0.0832117,0.212325,3.82602e-13,0.000109977,0.000151842,0.815932,-0.709568,874990,0.275237
0.00190955,0.294105,1.20528,302.192,0.0831821,0.212213,7.11971e-13,0.000149579,0.00020652,0.815774,-0.724216,971376,0.281178
0.00193467,0.295249,1.20063,303.339,0.083136,0.212063,1.32772e-12,0.000203305,0.000280698,0.815494,-0.744837,1.10432e+06,0.28949
0.0019598,0.296809,1.19435,304.902,0.0830672,0.21186,2.48216e-12,0.000276074,0.000381167,0.815048,-0.77371,1.28794e+06,0.301073
0.00198492,0.29893,1.1859,307.028,0.0829677,0.211587,4.6544e-12,0.000374421,0.000516953,0.814377,-0.814035,1.54203e+06,0.31719
0.00201005,0.301803,1.17463,309.909,0.082827,0.211222,8.76035e-12,0.000506952,0.000699935,0.813398,-0.870332,1.89452e+06,0.339628
0.00203518,0.305682,1.15975,313.797,0.0826309,0.210732,1.65654e-11,0.000684856,0.000945564,0.812006,-0.949029,2.38492e+06,0.370924
0.0020603,0.310892,1.14034,319.018,0.0823612,0.210081,3.1505e-11,0.000922452,0.00127361,0.810062,-1.05939,3.06955e+06,0.414736
0.00208543,0.317849,1.11542,325.985,0.0819949,0.209219,6.0336e-11,0.00123766,0.00170881,0.807385,-1.21498,4.02892e+06,0.476422
0.00211055,0.327064,1.08402,335.202,0.0815035,0.208086,1.16496e-10,0.00165232,0.00228131,0.803751,-1.43596,5.37801e+06,0.563959
0.00213568,0.339148,1.04544,347.274,0.0808528,0.206615,2.26999e-10,0.00219204,0.00302649,0.798886,-1.75298,7.2798e+06,0.689488
0.0021608,0.354805,0.999349,362.884,0.0800036,0.204727,4.46693e-10,0.0028856,0.00398408,0.792465,-2.21382,9.96166e+06,0.871961
0.00218593,0.374799,0.946092,382.768,0.0789125,0.202341,8.88034e-10,0.00376367,0.00519641,0.784119,-2.89498,1.37317e+07,1.14177
0.00221106,0.399916,0.886738,407.666,0.0775342,0.199373,1.78457e-09,0.004857,0.00670596,0.773439,-3.92243,1.89905e+07,1.54909
0.00223618,0.430914,0.823034,438.267,0.0758226,0.195748,3.6335e-09,0.00619462,0.00855281,0.759984,-5.50996,2.62338e+07,2.17916
0.00226131,0.468475,0.757152,475.157,0.0737321,0.191399,7.55008e-09,0.00780235,0.0107726,0.743276,-8.02863,3.60384e+07,3.18008
0.00228643,0.513182,0.691335,518.783,0.0712165,0.18627,1.62628e-08,0.00970201,0.0133955,0.722787,-12.1306,4.90349e+07,4.81199
0.00231156,0.565509,0.627561,569.437,0.0682271,0.180319,3.70911e-08,0.0119114,0.0164462,0.697901,-18.9466,6.58574e+07,7.52513
0.00233668,0.625847,0.567334,627.267,0.0647068,0.173516,9.1379e-08,0.014445,0.0199446,0.667854,-30.335,8.70597e+07,12.0565
0.00236181,0.694551,0.51161,692.288,0.0605839,0.165846,2.48986e-07,0.0173145,0.0239075,0.631641,-48.2375,1.13035e+08,19.1013
0.00238693,0.771989,0.460851,764.415,0.0557684,0.157301,7.50465e-07,0.0205293,0.0283486,0.587971,-59.8714,1.45676e+08,23.3767
0.00241206,0.85823,0.415152,843.473,0.0502178,0.147882,2.34095e-06,0.0240948,0.0332777,0.535986,-57.6684,1.85919e+08,22.5719
0.00243719,0.953036,0.374381,929.153,0.0439722,0.137597,7.22197e-06,0.0280071,0.0386964,0.475649,-54.303,2.31764e+08,21.3943
0.00246231,1.05605,0.338311,1020.87,0.03714,0.126497,2.21154e-05,0.0322437,0.0445943,0.407607,-51.0136,2.81149e+08,20.2435
0.00248744,1.1662,0.306735,1117.44,0.029952,0.114701,6.34052e-05,0.0367427,0.0509437,0.333851,-89.1677,6.0288e+08,17.8211
0.0025,1.22411,0.292542,1167.01,0.0262465,0.108494,0.000105517,0.0390933,0.0543487,0.294946,-92.5071,7.13365e+08,18.5637
0.00251256,1.28312,0.279405,1217.02,0.0225859,0.102202,0.000166652,0.0414515,0.0578585,0.255922,-46.3426,4.05873e+08,18.6766
0.00253769,1.39977,0.25638,1316.18,0.0158586,0.0897321,0.000354122,0.0459885,0.0650204,0.182695,-41.87,4.33113e+08,16.9887
0.00256281,1.51117,0.237707,1409.72,0.010264,0.0775571,0.000652701,0.0500333,0.0724333,0.120199,-39.1239,4.69451e+08,15.9677
0.00258794,1.61175,0.223071,1493.53,0.00609701,0.0661667,0.00106883,0.0531855,0.0799551,0.0725212,-36.5495,4.92637e+08,14.9836
0.00261307,1.69759,0.211966,1564.97,0.0033336,0.0559966,0.00158433,0.0551553,0.0874093,0.0402161,-34.1793,5.02587e+08,14.0556
0.00263819,1.76737,0.203756,1623.33,0.00169887,0.047324,0.00215109,0.0558788,0.0946056,0.0207479,-32.0357,5.01495e+08,13.201
0.00266332,1.8222,0.197769,1669.72,0.000827005,0.0402143,0.00270408,0.0555285,0.10137,0.0102039,-30.1277,4.92667e+08,12.4316
0.00268844,1.86476,0.193389,1706.28,0.000399999,0.0345454,0.00318702,0.0544229,0.107574,0.00497654,-28.4479,4.79286e+08,11.7494
0.00271357,1.89807,0.190119,1735.37,0.000203419,0.0300847,0.00356987,0.0529004,0.113146,0.00254777,-26.9754,4.63744e+08,11.1487
0.00273869,1.92476,0.1876,1759.02,0.000116087,0.0265715,0.00384898,0.0512322,0.118072,0.00146179,-25.6878,4.47634e+08,10.6223
0.00276382,1.94677,0.185589,1778.73,7.75262e-05,0.0237705,0.00403691,0.0495958,0.122377,0.000980509,-24.5476,4.31612e+08,10.156
0.00278894,1.96544,0.183932,1795.55,6.0008e-05,0.0214945,0.00415205,0.0480884,0.126111,0.000761717,-23.5355,4.16187e+08,9.74062
0.00281407,1.98163,0.182529,1810.17,5.14856e-05,0.0196042,0.00421216,0.046752,0.129336,0.000655561,-22.6348,4.01595e+08,9.37078
0.0028392,1.99593,0.181317,1823.09,4.68656e-05,0.0180001,0.00423186,0.0455962,0.132119,0.000598338,-21.8244,3.87811e+08,9.03765
0.00286432,2.00873,0.180254,1834.62,4.40112e-05,0.0166122,0.0042222,0.0446134,0.134519,0.000563228,-21.0894,3.74801e+08,8.73511
0.00288945,2.0203,0.17931,1844.99,4.20148e-05,0.0153913,0.00419122,0.0437885,0.136592,0.000538822,-20.418,3.62513e+08,8.45847
0.00291457,2.03084,0.178465,1854.39,4.04768e-05,0.0143024,0.00414468,0.0431033,0.138387,0.000520101,-19.8011,3.50901e+08,8.20407
0.0029397,2.0405,0.177702,1862.96,3.92105e-05,0.0133204,0.00408672,0.0425399,0.139946,0.000504721,-19.2301,3.39892e+08,7.9683
0.00296482,2.0494,0.177011,1870.78,3.8122e-05,0.0124269,0.0040203,0.0420814,0.141303,0.000491513,-18.6994,3.29451e+08,7.74887
0.00298995,2.05764,0.17638,1877.96,3.7159e-05,0.011608,0.00394758,0.0417126,0.14249,0.000479825,-18.2028,3.19515e+08,7.54336
0.00301508,2.06527,0.175803,1884.56,3.62898e-05,0.0108532,0.00387018,0.0414202,0.143531,0.000469267,-17.7356,3.10034e+08,7.34985
0.0030402,2.07238,0.175274,1890.64,3.54937e-05,0.0101542,0.00378931,0.0411929,0.144447,0.000459585,-17.2945,3.00983e+08,7.16709
0.00306533,2.07901,0.174786,1896.26,3.47552e-05,0.00950441,0.0037059,0.0410208,0.145256,0.000450589,-16.8758,2.92315e+08,6.9931
0.00309045,2.0852,0.174336,1901.46,3.40646e-05,0.00889868,0.00362067,0.0408954,0.145972,0.000442158,-16.4774,2.84014e+08,6.82748
0.00311558,2.091,0.17392,1906.27,3.3413e-05,0.00833268,0.0035342,0.0408096,0.146607,0.000434186,-16.0959,2.76032e+08,6.66873
0.0031407,2.09644,0.173535,1910.73,3.27937e-05,0.00780281,0.00344696,0.0407573,0.147173,0.000426591,-15.7296,2.68351e+08,6.51612
0.00316583,2.10154,0.173178,1914.87,3.22014e-05,0.00730607,0.00335931,0.0407333,0.147678,0.000419308,-15.3767,2.60948e+08,6.36896
0.00319095,2.10634,0.172846,1918.72,3.1631e-05,0.00683992,0.00327157,0.0407332,0.148129,0.000412274,-15.0351,2.53795e+08,6.22632
0.00321608,2.11086,0.172537,1922.3,3.10785e-05,0.00640215,0.00318401,0.0407532,0.148533,0.000405439,-14.7033,2.4687e+08,6.08755
0.00324121,2.11511,0.17225,1925.63,3.05408e-05,0.00599086,0.00309685,0.0407899,0.148895,0.000398766,-14.3803,2.40159e+08,5.95237
0.00326633,2.11912,0.171982,1928.72,3.00142e-05,0.00560436,0.00301029,0.0408405,0.149219,0.000392211,-14.0639,2.3363e+08,5.81987
0.00329146,2.1229,0.171733,1931.61,2.94965e-05,0.00524118,0.00292452,0.0409026,0.14951,0.000385745,-13.755,2.27299e+08,5.69018
0.00331658,2.12647,0.1715,1934.3,2.89844e-05,0.00489997,0.00283968,0.040974,0.149772,0.000379327,-13.4509,2.21121e+08,5.56237
0.00334171,2.12984,0.171282,1936.81,2.84753e-05,0.00457952,0.00275593,0.0410528,0.150006,0.000372923,-13.1511,2.1509e+08,5.43616
0.00336683,2.13302,0.171079,1939.15,2.79662e-05,0.00427873,0.00267341,0.0411374,0.150217,0.000366499,-12.8543,2.09185e+08,5.31107
0.00339196,2.13603,0.17089,1941.34,2.74549e-05,0.00399658,0.00259224,0.0412262,0.150405,0.000360023,-12.5595,2.0339e+08,5.18671
0.00341709,2.13888,0.170712,1943.38,2.6939e-05,0.00373212,0.00251256,0.0413181,0.150575,0.000353467,-12.2668,1.97704e+08,5.0629
0.00344221,2.14158,0.170546,1945.29,2.6416e-05,0.00348446,0.00243449,0.0414117,0.150727,0.000346799,-11.9746,1.92103e+08,4.9392
0.00346734,2.14413,0.17039,1947.08,2.58833e-05,0.00325277,0.00235815,0.0415062,0.150863,0.000339985,-11.6825,1.86577e+08,4.8153
0.00349246,2.14656,0.170244,1948.76,2.5338e-05,0.00303624,0.00228365,0.0416006,0.150985,0.000332988,-11.3891,1.81105e+08,4.69062
0.00351759,2.14886,0.170107,1950.34,2.47778e-05,0.00283412,0.00221111,0.0416941,0.151094,0.000325779,-11.0939,1.75679e+08,4.56497
0.00354271,2.15104,0.169978,1951.83,2.42004e-05,0.00264568,0.00214064,0.0417861,0.151192,0.000318327,-10.7967,1.70289e+08,4.43816
0.00356784,2.15312,0.169856,1953.23,2.36028e-05,0.0024702,0.00207234,0.041876,0.151279,0.000310594,-10.4958,1.64913e+08,4.30965
0.00359296,2.1551,0.169741,1954.56,2.29817e-05,0.00230703,0.00200632,0.0419632,0.151358,0.000302537,-10.1905,1.59535e+08,4.17887
0.00361809,2.15699,0.169632,1955.82,2.23344e-05,0.00215549,0.00194267,0.0420473,0.151428,0.000294121,-9.88022,1.54144e+08,4.04564
0.00364322,2.1588,0.169528,1957.03,2.16576e-05,0.00201494,0.00188149,0.042128,0.151491,0.000285303,-9.56354,1.48718e+08,3.90937
0.00366834,2.16053,0.169429,1958.18,2.09475e-05,0.00188478,0.00182286,0.0422049,0.151548,0.000276034,-9.23923,1.43235e+08,3.76948
0.00369347,2.16219,0.169334,1959.3,2.02001e-05,0.00176441,0.00176686,0.0422779,0.1516,0.000266261,-8.90617,1.37675e+08,3.62537
0.00371859,2.16379,0.169242,1960.37,1.94104e-05,0.00165323,0.00171354,0.0423468,0.151647,0.000255919,-8.56295,1.32017e+08,3.47636
0.00374372,2.16534,0.169154,1961.42,1.85722e-05,0.00155068,0.00166297,0.0424114,0.151689,0.000244927,-8.20756,1.26228e+08,3.32151
0.00376884,2.16683,0.169067,1962.44,1.76768e-05,0.00145622,0.00161518,0.0424718,0.151728,0.000233169,-7.8378,1.20273e+08,3.15968
0.00379397,2.16829,0.168983,1963.45,1.67106e-05,0.00136932,0.00157017,0.0425279,0.151765,0.000220467,-7.45061,1.14104e+08,2.98934
0.0038191,2.1697,0.1689,1964.45,1.56501e-05,0.00128944,0.00152794,0.0425798,0.151798,0.000206512,-7.04225,1.07666e+08,2.80855
0.00384422,2.17108,0.168818,1965.45,1.44485e-05,0.0012161,0.00148846,0.0426276,0.15183,0.000190687,-6.6074,1.00879e+08,2.61443
0.00386935,2.17242,0.168736,1966.44,1.30047e-05,0.00114879,0.00145165,0.0426714,0.15186,0.000171655,-6.1355,9.35913e+07,2.4009
0.00389447,2.17372,0.168655,1967.43,1.10941e-05,0.00108705,0.00141739,0.0427115,0.151888,0.000146454,-5.40998,8.27802e+07,2.02916
