  Grid,   Temperature,   Uvec,   CO,    CO2
   0.000e+00,   3.000e+02,   3.728e-01,   2.236e-16,  -4.139e-15
   2.222e-03,   3.000e+02,   3.728e-01,   1.028e-14,   4.996e-15
   4.444e-03,   3.000e+02,   3.728e-01,   4.758e-14,   6.377e-15
   5.556e-03,   3.000e+02,   3.728e-01,   6.552e-13,   4.231e-14
   6.667e-03,   3.000e+02,   3.728e-01,   1.331e-11,   3.990e-13
   7.222e-03,   3.000e+02,   3.728e-01,   1.180e-10,   4.245e-12
   7.778e-03,   3.000e+02,   3.728e-01,   1.308e-09,   6.087e-11
   8.333e-03,   3.000e+02,   3.728e-01,   1.483e-08,   8.945e-10
   8.611e-03,   3.000e+02,   3.729e-01,   7.418e-08,   5.601e-09
   8.889e-03,   3.000e+02,   3.729e-01,   4.411e-07,   4.260e-08
   9.028e-03,   3.000e+02,   3.730e-01,   1.338e-06,   1.563e-07
   9.167e-03,   3.002e+02,   3.732e-01,   4.558e-06,   6.598e-07
   9.306e-03,   3.005e+02,   3.738e-01,   1.612e-05,   2.889e-06
   9.375e-03,   3.011e+02,   3.745e-01,   3.310e-05,   6.862e-06
   9.444e-03,   3.024e+02,   3.763e-01,   7.195e-05,   1.760e-05
   9.514e-03,   3.054e+02,   3.801e-01,   1.605e-04,   4.649e-05
   9.583e-03,   3.120e+02,   3.886e-01,   3.602e-04,   1.233e-04
   9.618e-03,   3.183e+02,   3.966e-01,   5.521e-04,   2.081e-04
   9.653e-03,   3.283e+02,   4.093e-01,   8.578e-04,   3.592e-04
   9.670e-03,   3.355e+02,   4.184e-01,   1.076e-03,   4.773e-04
   9.687e-03,   3.445e+02,   4.298e-01,   1.356e-03,   6.382e-04
   9.705e-03,   3.559e+02,   4.442e-01,   1.710e-03,   8.550e-04
   9.722e-03,   3.702e+02,   4.622e-01,   2.154e-03,   1.143e-03
   9.740e-03,   3.877e+02,   4.843e-01,   2.705e-03,   1.522e-03
   9.748e-03,   3.979e+02,   4.973e-01,   3.028e-03,   1.753e-03
   9.757e-03,   4.092e+02,   5.116e-01,   3.387e-03,   2.018e-03
   9.766e-03,   4.217e+02,   5.274e-01,   3.784e-03,   2.318e-03
   9.774e-03,   4.354e+02,   5.447e-01,   4.223e-03,   2.658e-03
   9.783e-03,   4.503e+02,   5.636e-01,   4.704e-03,   3.040e-03
   9.792e-03,   4.666e+02,   5.842e-01,   5.231e-03,   3.468e-03
   9.800e-03,   4.842e+02,   6.066e-01,   5.806e-03,   3.946e-03
   9.809e-03,   5.033e+02,   6.308e-01,   6.432e-03,   4.475e-03
   9.818e-03,   5.237e+02,   6.568e-01,   7.109e-03,   5.059e-03
   9.822e-03,   5.345e+02,   6.706e-01,   7.468e-03,   5.374e-03
   9.826e-03,   5.457e+02,   6.848e-01,   7.842e-03,   5.703e-03
   9.831e-03,   5.572e+02,   6.996e-01,   8.230e-03,   6.049e-03
   9.835e-03,   5.691e+02,   7.148e-01,   8.632e-03,   6.410e-03
   9.839e-03,   5.814e+02,   7.305e-01,   9.049e-03,   6.788e-03
   9.844e-03,   5.940e+02,   7.468e-01,   9.482e-03,   7.182e-03
   9.848e-03,   6.070e+02,   7.635e-01,   9.929e-03,   7.594e-03
   9.852e-03,   6.204e+02,   7.808e-01,   1.039e-02,   8.023e-03
   9.855e-03,   6.273e+02,   7.896e-01,   1.063e-02,   8.245e-03
   9.857e-03,   6.342e+02,   7.986e-01,   1.087e-02,   8.471e-03
   9.859e-03,   6.412e+02,   8.076e-01,   1.112e-02,   8.701e-03
   9.861e-03,   6.483e+02,   8.169e-01,   1.137e-02,   8.936e-03
   9.865e-03,   6.628e+02,   8.357e-01,   1.188e-02,   9.421e-03
   9.870e-03,   6.777e+02,   8.550e-01,   1.241e-02,   9.924e-03
   9.872e-03,   6.852e+02,   8.648e-01,   1.268e-02,   1.018e-02
   9.874e-03,   6.929e+02,   8.748e-01,   1.295e-02,   1.045e-02
   9.876e-03,   7.006e+02,   8.849e-01,   1.323e-02,   1.072e-02
   9.878e-03,   7.084e+02,   8.952e-01,   1.351e-02,   1.099e-02
   9.881e-03,   7.163e+02,   9.055e-01,   1.380e-02,   1.127e-02
   9.883e-03,   7.243e+02,   9.160e-01,   1.409e-02,   1.155e-02
   9.885e-03,   7.324e+02,   9.267e-01,   1.439e-02,   1.184e-02
   9.886e-03,   7.365e+02,   9.320e-01,   1.454e-02,   1.199e-02
   9.887e-03,   7.406e+02,   9.374e-01,   1.469e-02,   1.214e-02
   9.888e-03,   7.447e+02,   9.428e-01,   1.484e-02,   1.228e-02
   9.889e-03,   7.488e+02,   9.483e-01,   1.500e-02,   1.244e-02
   9.890e-03,   7.530e+02,   9.538e-01,   1.515e-02,   1.259e-02
   9.891e-03,   7.571e+02,   9.593e-01,   1.531e-02,   1.274e-02
   9.894e-03,   7.655e+02,   9.704e-01,   1.562e-02,   1.305e-02
   9.896e-03,   7.740e+02,   9.817e-01,   1.594e-02,   1.337e-02
   9.897e-03,   7.783e+02,   9.874e-01,   1.610e-02,   1.353e-02
   9.898e-03,   7.826e+02,   9.931e-01,   1.626e-02,   1.369e-02
   9.899e-03,   7.869e+02,   9.988e-01,   1.643e-02,   1.385e-02
   9.900e-03,   7.912e+02,   1.005e+00,   1.659e-02,   1.401e-02
   9.901e-03,   7.955e+02,   1.010e+00,   1.676e-02,   1.418e-02
   9.902e-03,   7.999e+02,   1.016e+00,   1.692e-02,   1.435e-02
   9.903e-03,   8.043e+02,   1.022e+00,   1.709e-02,   1.451e-02
   9.905e-03,   8.087e+02,   1.028e+00,   1.726e-02,   1.468e-02
   9.906e-03,   8.131e+02,   1.034e+00,   1.743e-02,   1.486e-02
   9.907e-03,   8.175e+02,   1.040e+00,   1.760e-02,   1.503e-02
   9.909e-03,   8.264e+02,   1.052e+00,   1.795e-02,   1.538e-02
   9.911e-03,   8.354e+02,   1.064e+00,   1.830e-02,   1.573e-02
   9.913e-03,   8.445e+02,   1.076e+00,   1.866e-02,   1.609e-02
   9.915e-03,   8.536e+02,   1.089e+00,   1.902e-02,   1.646e-02
   9.918e-03,   8.627e+02,   1.101e+00,   1.939e-02,   1.683e-02
   9.920e-03,   8.720e+02,   1.114e+00,   1.976e-02,   1.721e-02
   9.922e-03,   8.813e+02,   1.126e+00,   2.014e-02,   1.760e-02
   9.924e-03,   8.906e+02,   1.139e+00,   2.052e-02,   1.799e-02
   9.926e-03,   9.001e+02,   1.152e+00,   2.090e-02,   1.838e-02
   9.928e-03,   9.095e+02,   1.165e+00,   2.129e-02,   1.879e-02
   9.931e-03,   9.191e+02,   1.178e+00,   2.169e-02,   1.920e-02
   9.933e-03,   9.287e+02,   1.191e+00,   2.209e-02,   1.961e-02
   9.935e-03,   9.383e+02,   1.205e+00,   2.250e-02,   2.003e-02
   9.937e-03,   9.480e+02,   1.218e+00,   2.291e-02,   2.046e-02
   9.939e-03,   9.578e+02,   1.232e+00,   2.332e-02,   2.089e-02
   9.941e-03,   9.676e+02,   1.246e+00,   2.374e-02,   2.133e-02
   9.944e-03,   9.775e+02,   1.259e+00,   2.417e-02,   2.178e-02
   9.946e-03,   9.874e+02,   1.273e+00,   2.460e-02,   2.223e-02
   9.948e-03,   9.974e+02,   1.287e+00,   2.504e-02,   2.269e-02
   9.950e-03,   1.007e+03,   1.302e+00,   2.548e-02,   2.316e-02
   9.952e-03,   1.017e+03,   1.316e+00,   2.592e-02,   2.363e-02
   9.954e-03,   1.028e+03,   1.330e+00,   2.637e-02,   2.411e-02
   9.957e-03,   1.038e+03,   1.345e+00,   2.683e-02,   2.460e-02
   9.959e-03,   1.048e+03,   1.359e+00,   2.729e-02,   2.509e-02
   9.961e-03,   1.058e+03,   1.374e+00,   2.776e-02,   2.559e-02
   9.963e-03,   1.069e+03,   1.389e+00,   2.823e-02,   2.610e-02
   9.965e-03,   1.079e+03,   1.404e+00,   2.870e-02,   2.661e-02
   9.967e-03,   1.089e+03,   1.419e+00,   2.918e-02,   2.713e-02
   9.970e-03,   1.100e+03,   1.434e+00,   2.966e-02,   2.765e-02
   9.972e-03,   1.110e+03,   1.449e+00,   3.015e-02,   2.819e-02
   9.974e-03,   1.121e+03,   1.464e+00,   3.064e-02,   2.873e-02
   9.976e-03,   1.131e+03,   1.479e+00,   3.114e-02,   2.928e-02
   9.978e-03,   1.142e+03,   1.494e+00,   3.164e-02,   2.983e-02
   9.980e-03,   1.152e+03,   1.510e+00,   3.214e-02,   3.039e-02
   9.983e-03,   1.163e+03,   1.525e+00,   3.265e-02,   3.096e-02
   9.985e-03,   1.173e+03,   1.541e+00,   3.316e-02,   3.153e-02
   9.987e-03,   1.184e+03,   1.556e+00,   3.367e-02,   3.211e-02
   9.989e-03,   1.195e+03,   1.572e+00,   3.419e-02,   3.270e-02
   9.991e-03,   1.205e+03,   1.588e+00,   3.470e-02,   3.330e-02
   9.993e-03,   1.216e+03,   1.603e+00,   3.522e-02,   3.390e-02
   9.996e-03,   1.226e+03,   1.619e+00,   3.575e-02,   3.451e-02
   9.998e-03,   1.237e+03,   1.635e+00,   3.627e-02,   3.512e-02
   1.000e-02,   1.248e+03,   1.650e+00,   3.679e-02,   3.574e-02
   1.000e-02,   1.258e+03,   1.666e+00,   3.732e-02,   3.637e-02
   1.000e-02,   1.269e+03,   1.681e+00,   3.784e-02,   3.700e-02
   1.001e-02,   1.290e+03,   1.713e+00,   3.889e-02,   3.829e-02
   1.001e-02,   1.311e+03,   1.744e+00,   3.993e-02,   3.960e-02
   1.002e-02,   1.331e+03,   1.774e+00,   4.097e-02,   4.093e-02
   1.002e-02,   1.352e+03,   1.805e+00,   4.199e-02,   4.229e-02
   1.003e-02,   1.372e+03,   1.835e+00,   4.299e-02,   4.366e-02
   1.003e-02,   1.392e+03,   1.864e+00,   4.397e-02,   4.505e-02
   1.003e-02,   1.412e+03,   1.893e+00,   4.493e-02,   4.646e-02
   1.004e-02,   1.431e+03,   1.922e+00,   4.585e-02,   4.789e-02
   1.004e-02,   1.441e+03,   1.936e+00,   4.630e-02,   4.861e-02
   1.004e-02,   1.450e+03,   1.950e+00,   4.674e-02,   4.933e-02
   1.005e-02,   1.460e+03,   1.964e+00,   4.717e-02,   5.005e-02
   1.005e-02,   1.469e+03,   1.977e+00,   4.759e-02,   5.078e-02
   1.005e-02,   1.487e+03,   2.003e+00,   4.839e-02,   5.225e-02
   1.006e-02,   1.505e+03,   2.029e+00,   4.914e-02,   5.372e-02
   1.006e-02,   1.514e+03,   2.042e+00,   4.950e-02,   5.446e-02
   1.006e-02,   1.522e+03,   2.054e+00,   4.985e-02,   5.520e-02
   1.007e-02,   1.539e+03,   2.078e+00,   5.050e-02,   5.669e-02
   1.007e-02,   1.555e+03,   2.101e+00,   5.109e-02,   5.818e-02
   1.007e-02,   1.571e+03,   2.124e+00,   5.163e-02,   5.967e-02
   1.008e-02,   1.586e+03,   2.145e+00,   5.210e-02,   6.117e-02
   1.008e-02,   1.601e+03,   2.166e+00,   5.252e-02,   6.266e-02
   1.009e-02,   1.615e+03,   2.185e+00,   5.287e-02,   6.416e-02
   1.009e-02,   1.628e+03,   2.204e+00,   5.316e-02,   6.565e-02
   1.010e-02,   1.641e+03,   2.222e+00,   5.339e-02,   6.713e-02
   1.010e-02,   1.653e+03,   2.238e+00,   5.357e-02,   6.861e-02
   1.010e-02,   1.664e+03,   2.254e+00,   5.368e-02,   7.009e-02
   1.011e-02,   1.675e+03,   2.269e+00,   5.373e-02,   7.156e-02
   1.011e-02,   1.685e+03,   2.284e+00,   5.373e-02,   7.301e-02
   1.012e-02,   1.695e+03,   2.297e+00,   5.368e-02,   7.446e-02
   1.012e-02,   1.704e+03,   2.310e+00,   5.358e-02,   7.589e-02
   1.013e-02,   1.713e+03,   2.321e+00,   5.343e-02,   7.731e-02
   1.013e-02,   1.722e+03,   2.333e+00,   5.323e-02,   7.872e-02
   1.013e-02,   1.729e+03,   2.343e+00,   5.299e-02,   8.011e-02
   1.014e-02,   1.737e+03,   2.353e+00,   5.272e-02,   8.148e-02
   1.014e-02,   1.744e+03,   2.362e+00,   5.241e-02,   8.284e-02
   1.015e-02,   1.750e+03,   2.371e+00,   5.206e-02,   8.418e-02
   1.015e-02,   1.756e+03,   2.379e+00,   5.169e-02,   8.550e-02
   1.016e-02,   1.762e+03,   2.386e+00,   5.129e-02,   8.680e-02
   1.016e-02,   1.768e+03,   2.393e+00,   5.087e-02,   8.808e-02
   1.016e-02,   1.773e+03,   2.400e+00,   5.043e-02,   8.934e-02
   1.017e-02,   1.778e+03,   2.406e+00,   4.997e-02,   9.058e-02
   1.017e-02,   1.783e+03,   2.412e+00,   4.950e-02,   9.180e-02
   1.018e-02,   1.792e+03,   2.423e+00,   4.852e-02,   9.417e-02
   1.019e-02,   1.800e+03,   2.433e+00,   4.750e-02,   9.645e-02
   1.020e-02,   1.807e+03,   2.442e+00,   4.647e-02,   9.865e-02
   1.021e-02,   1.814e+03,   2.450e+00,   4.544e-02,   1.008e-01
   1.022e-02,   1.820e+03,   2.457e+00,   4.441e-02,   1.028e-01
   1.023e-02,   1.826e+03,   2.464e+00,   4.340e-02,   1.047e-01
   1.023e-02,   1.832e+03,   2.470e+00,   4.241e-02,   1.066e-01
   1.024e-02,   1.837e+03,   2.477e+00,   4.145e-02,   1.083e-01
   1.026e-02,   1.848e+03,   2.488e+00,   3.961e-02,   1.116e-01
   1.028e-02,   1.857e+03,   2.498e+00,   3.791e-02,   1.146e-01
   1.030e-02,   1.866e+03,   2.508e+00,   3.634e-02,   1.173e-01
   1.031e-02,   1.874e+03,   2.517e+00,   3.491e-02,   1.198e-01
   1.035e-02,   1.889e+03,   2.534e+00,   3.243e-02,   1.240e-01
   1.038e-02,   1.903e+03,   2.550e+00,   3.038e-02,   1.274e-01
   1.042e-02,   1.916e+03,   2.564e+00,   2.867e-02,   1.303e-01
   1.049e-02,   1.939e+03,   2.590e+00,   2.611e-02,   1.346e-01
   1.056e-02,   1.959e+03,   2.613e+00,   2.425e-02,   1.376e-01
   1.062e-02,   1.976e+03,   2.633e+00,   2.284e-02,   1.399e-01
   1.069e-02,   1.992e+03,   2.651e+00,   2.173e-02,   1.417e-01
   1.076e-02,   2.005e+03,   2.668e+00,   2.083e-02,   1.432e-01
   1.083e-02,   2.018e+03,   2.682e+00,   2.006e-02,   1.444e-01
   1.090e-02,   2.029e+03,   2.695e+00,   1.939e-02,   1.455e-01
   1.097e-02,   2.039e+03,   2.707e+00,   1.879e-02,   1.464e-01
   1.111e-02,   2.056e+03,   2.727e+00,   1.777e-02,   1.481e-01
   1.125e-02,   2.070e+03,   2.744e+00,   1.688e-02,   1.495e-01
   1.139e-02,   2.083e+03,   2.758e+00,   1.609e-02,   1.507e-01
   1.167e-02,   2.102e+03,   2.781e+00,   1.478e-02,   1.528e-01
   1.194e-02,   2.118e+03,   2.799e+00,   1.369e-02,   1.545e-01
   1.222e-02,   2.131e+03,   2.814e+00,   1.277e-02,   1.560e-01
   1.278e-02,   2.149e+03,   2.834e+00,   1.136e-02,   1.582e-01
   1.333e-02,   2.162e+03,   2.849e+00,   1.029e-02,   1.599e-01
   1.444e-02,   2.179e+03,   2.868e+00,   8.875e-03,   1.621e-01
   1.556e-02,   2.190e+03,   2.881e+00,   7.916e-03,   1.636e-01
   1.778e-02,   2.202e+03,   2.894e+00,   6.909e-03,   1.652e-01
   2.000e-02,   2.202e+03,   2.894e+00,   6.909e-03,   1.652e-01
