# t [s], xp [m], d [micron], d^2 [micron^2], mp [mg], Tp [K], Tg [K], ug [m/s], mtfd, htfd, Sm [kg/m3s], Sh [J/m3s], rho[kg/m3s]
0,0.009,40,1600,2.63249e-05,300,300.288,0.268224,0,0,0,0,785.576
3.63709e-06,0.00900097,40.0037,1600.3,2.63244e-05,299.996,300.292,0.268228,-1.27585e-10,-1197.97,-5.85617e-08,0.000894386,785.58
7.27418e-06,0.00900195,40.0034,1600.28,2.6324e-05,299.991,300.296,0.268231,-1.27501e-10,-1196.69,-5.85232e-08,0.000918772,785.584
1.09113e-05,0.00900292,40.0031,1600.25,2.63235e-05,299.987,300.299,0.268235,-1.27418e-10,-1195.41,-5.84847e-08,0.000943146,785.588
1.45484e-05,0.0090039,40.0028,1600.23,2.6323e-05,299.983,300.303,0.268238,-1.27334e-10,-1194.13,-5.84462e-08,0.000967507,785.592
1.81855e-05,0.00900487,40.0025,1600.2,2.63226e-05,299.978,300.307,0.268242,-1.2725e-10,-1192.85,-5.84078e-08,0.000991855,785.596
2.18225e-05,0.00900585,40.0022,1600.18,2.63221e-05,299.974,300.31,0.268245,-1.27167e-10,-1191.58,-5.83694e-08,0.00101619,785.6
2.54596e-05,0.00900682,40.0019,1600.15,2.63217e-05,299.97,300.314,0.268249,-1.27083e-10,-1190.3,-5.83311e-08,0.00104051,785.604
2.90967e-05,0.0090078,40.0016,1600.13,2.63212e-05,299.965,300.318,0.268252,-1.27e-10,-1189.03,-5.82929e-08,0.00106482,785.608
3.27338e-05,0.00900877,40.0013,1600.11,2.63207e-05,299.961,300.321,0.268255,-1.26916e-10,-1187.76,-5.82546e-08,0.00108912,785.612
3.63709e-05,0.00900975,40.001,1600.08,2.63203e-05,299.957,300.325,0.268259,-1.26833e-10,-1186.49,-5.82165e-08,0.00111341,785.616
4.0008e-05,0.00901072,40.0007,1600.06,2.63198e-05,299.952,300.329,0.268262,-1.2675e-10,-1185.22,-5.81784e-08,0.00113768,785.62
4.36451e-05,0.0090117,40.0004,1600.03,2.63194e-05,299.948,300.333,0.268266,-1.26667e-10,-1183.95,-5.81403e-08,0.00116194,785.625
4.72822e-05,0.00901267,40.0001,1600.01,2.63189e-05,299.944,300.336,0.268269,-1.26584e-10,-1182.68,-5.81023e-08,0.00118619,785.629
5.09193e-05,0.00901364,39.9998,1599.98,2.63184e-05,299.939,300.34,0.268273,-1.26502e-10,-1181.42,-5.80643e-08,0.00121042,785.633
5.45564e-05,0.00901462,39.9995,1599.96,2.6318e-05,299.935,300.344,0.268276,-1.26419e-10,-1180.15,-5.80264e-08,0.00123464,785.637
5.81935e-05,0.00901559,39.9992,1599.94,2.63175e-05,299.931,300.347,0.268279,-1.26337e-10,-1178.89,-5.79885e-08,0.00125885,785.641
6.18305e-05,0.00901657,39.9989,1599.91,2.63171e-05,299.926,300.351,0.268283,-1.26254e-10,-1177.62,-5.79507e-08,0.00128305,785.645
6.54676e-05,0.00901754,39.9986,1599.89,2.63166e-05,299.922,300.355,0.268286,-1.26172e-10,-1176.36,-5.79129e-08,0.00130723,785.649
6.91047e-05,0.00901852,39.9983,1599.86,2.63161e-05,299.918,300.359,0.26829,-1.2609e-10,-1175.1,-5.78752e-08,0.0013314,785.653
7.27418e-05,0.00901949,39.998,1599.84,2.63157e-05,299.914,300.362,0.268293,-1.26008e-10,-1173.84,-5.78375e-08,0.00135556,785.656
7.63789e-05,0.00902047,39.9977,1599.82,2.63152e-05,299.909,300.366,0.268297,-1.25926e-10,-1172.58,-5.77999e-08,0.00137971,785.66
8.0016e-05,0.00902144,39.9974,1599.79,2.63148e-05,299.905,300.37,0.2683,-1.25844e-10,-1171.33,-5.77623e-08,0.00140384,785.664
8.36531e-05,0.00902242,39.9971,1599.77,2.63143e-05,299.901,300.373,0.268304,-1.25762e-10,-1170.07,-5.77248e-08,0.00142796,785.668
8.72902e-05,0.00902339,39.9968,1599.74,2.63138e-05,299.897,300.377,0.268307,-1.2568e-10,-1168.81,-5.76873e-08,0.00145207,785.672
9.09273e-05,0.00902437,39.9965,1599.72,2.63134e-05,299.892,300.381,0.26831,-1.25599e-10,-1167.56,-5.76499e-08,0.00147617,785.676
9.45644e-05,0.00902534,39.9962,1599.7,2.63129e-05,299.888,300.385,0.268314,-1.25517e-10,-1166.31,-5.76125e-08,0.00150025,785.68
9.82015e-05,0.00902632,39.9959,1599.67,2.63125e-05,299.884,300.388,0.268317,-1.25436e-10,-1165.06,-5.75751e-08,0.00152432,785.684
0.000101839,0.00902729,39.9956,1599.65,2.6312e-05,299.88,300.392,0.268321,-1.25355e-10,-1163.8,-5.75378e-08,0.00154838,785.688
0.000105476,0.00902826,39.9953,1599.63,2.63116e-05,299.875,300.396,0.268324,-1.25274e-10,-1162.55,-5.75006e-08,0.00157243,785.692
0.000109113,0.00902924,39.995,1599.6,2.63111e-05,299.871,300.399,0.268328,-1.25193e-10,-1161.31,-5.74634e-08,0.00159646,785.696
0.00011275,0.00903021,39.9947,1599.58,2.63107e-05,299.867,300.403,0.268331,-1.25112e-10,-1160.06,-5.74263e-08,0.00162048,785.7
0.000116387,0.00903119,39.9944,1599.55,2.63102e-05,299.863,300.407,0.268334,-1.25031e-10,-1158.81,-5.73892e-08,0.00164449,785.704
0.000120024,0.00903216,39.9941,1599.53,2.63097e-05,299.858,300.41,0.268338,-1.2495e-10,-1157.57,-5.73521e-08,0.00166849,785.708
0.000123661,0.00903314,39.9938,1599.51,2.63093e-05,299.854,300.414,0.268341,-1.24869e-10,-1156.32,-5.73151e-08,0.00169247,785.712
0.000127298,0.00903411,39.9935,1599.48,2.63088e-05,299.85,300.418,0.268345,-1.24789e-10,-1155.08,-5.72781e-08,0.00171644,785.716
0.000130935,0.00903509,39.9932,1599.46,2.63084e-05,299.846,300.422,0.268348,-1.24709e-10,-1153.84,-5.72412e-08,0.0017404,785.72
0.000134572,0.00903606,39.9929,1599.44,2.63079e-05,299.842,300.425,0.268352,-1.24628e-10,-1152.6,-5.72044e-08,0.00176434,785.724
0.000138209,0.00903704,39.9926,1599.41,2.63075e-05,299.837,300.429,0.268355,-1.24548e-10,-1151.36,-5.71676e-08,0.00178828,785.727
0.000141847,0.00903801,39.9924,1599.39,2.6307e-05,299.833,300.433,0.268359,-1.24468e-10,-1150.12,-5.71308e-08,0.0018122,785.731
0.000145484,0.00903899,39.9921,1599.36,2.63066e-05,299.829,300.436,0.268362,-1.24388e-10,-1148.88,-5.70941e-08,0.00183611,785.735
0.000149121,0.00903996,39.9918,1599.34,2.63061e-05,299.825,300.44,0.268365,-1.24308e-10,-1147.65,-5.70574e-08,0.00186,785.739
0.000152758,0.00904094,39.9915,1599.32,2.63057e-05,299.821,300.444,0.268369,-1.24228e-10,-1146.41,-5.70208e-08,0.00188389,785.743
0.000156395,0.00904191,39.9912,1599.29,2.63052e-05,299.817,300.448,0.268372,-1.24149e-10,-1145.18,-5.69842e-08,0.00190776,785.747
0.000160032,0.00904288,39.9909,1599.27,2.63048e-05,299.812,300.451,0.268376,-1.24069e-10,-1143.94,-5.69477e-08,0.00193162,785.751
0.000163669,0.00904386,39.9906,1599.25,2.63043e-05,299.808,300.455,0.268379,-1.23989e-10,-1142.71,-5.69112e-08,0.00195546,785.755
0.000167306,0.00904483,39.9903,1599.22,2.63039e-05,299.804,300.459,0.268383,-1.2391e-10,-1141.48,-5.68747e-08,0.0019793,785.759
0.000170943,0.00904581,39.99,1599.2,2.63034e-05,299.8,300.462,0.268386,-1.23831e-10,-1140.25,-5.68383e-08,0.00200312,785.762
0.00017458,0.00904678,39.9897,1599.18,2.6303e-05,299.796,300.466,0.268389,-1.23752e-10,-1139.02,-5.6802e-08,0.00202693,785.766
0.000178217,0.00904776,39.9894,1599.15,2.63025e-05,299.792,300.47,0.268393,-1.23673e-10,-1137.79,-5.67657e-08,0.00205072,785.77
0.000181855,0.00904873,39.9891,1599.13,2.63021e-05,299.788,300.474,0.268396,-1.23594e-10,-1136.57,-5.67294e-08,0.00207451,785.774
0.000185492,0.00904971,39.9888,1599.11,2.63016e-05,299.783,300.477,0.2684,-1.23515e-10,-1135.34,-5.66932e-08,0.00209828,785.778
0.000189129,0.00905068,39.9885,1599.08,2.63012e-05,299.779,300.481,0.268403,-1.23436e-10,-1134.12,-5.66571e-08,0.00212204,785.782
0.000192766,0.00905166,39.9882,1599.06,2.63007e-05,299.775,300.485,0.268407,-1.23357e-10,-1132.89,-5.6621e-08,0.00214579,785.786
0.000196403,0.00905263,39.9879,1599.04,2.63003e-05,299.771,300.488,0.26841,-1.23279e-10,-1131.67,-5.65849e-08,0.00216952,785.789
0.00020004,0.00905361,39.9877,1599.01,2.62998e-05,299.767,300.492,0.268414,-1.232e-10,-1130.45,-5.65489e-08,0.00219325,785.793
0.000203677,0.00905458,39.9874,1598.99,2.62994e-05,299.763,300.496,0.268417,-1.23122e-10,-1129.23,-5.65129e-08,0.00221696,785.797
0.000207314,0.00905556,39.9871,1598.97,2.62989e-05,299.759,300.5,0.26842,-1.23044e-10,-1128.01,-5.6477e-08,0.00224065,785.801
0.000210951,0.00905653,39.9868,1598.94,2.62985e-05,299.755,300.503,0.268424,-1.22965e-10,-1126.79,-5.64411e-08,0.00226434,785.805
0.000214588,0.0090575,39.9865,1598.92,2.6298e-05,299.75,300.507,0.268427,-1.22887e-10,-1125.58,-5.64053e-08,0.00228801,785.809
0.000218225,0.00905848,39.9862,1598.9,2.62976e-05,299.746,300.511,0.268431,-1.22809e-10,-1124.36,-5.63695e-08,0.00231168,785.812
0.000221863,0.00905945,39.9859,1598.87,2.62971e-05,299.742,300.514,0.268434,-1.22731e-10,-1123.15,-5.63337e-08,0.00233532,785.816
0.0002255,0.00906043,39.9856,1598.85,2.62967e-05,299.738,300.518,0.268438,-1.22654e-10,-1121.93,-5.6298e-08,0.00235896,785.82
0.000229137,0.0090614,39.9853,1598.83,2.62962e-05,299.734,300.522,0.268441,-1.22576e-10,-1120.72,-5.62624e-08,0.00238259,785.824
0.000232774,0.00906238,39.985,1598.8,2.62958e-05,299.73,300.525,0.268444,-1.22498e-10,-1119.51,-5.62268e-08,0.0024062,785.828
0.000236411,0.00906335,39.9847,1598.78,2.62953e-05,299.726,300.529,0.268448,-1.22421e-10,-1118.3,-5.61912e-08,0.0024298,785.831
0.000240048,0.00906433,39.9844,1598.76,2.62949e-05,299.722,300.533,0.268451,-1.22344e-10,-1117.09,-5.61557e-08,0.00245339,785.835
0.000243685,0.0090653,39.9842,1598.73,2.62945e-05,299.718,300.537,0.268455,-1.22266e-10,-1115.88,-5.61202e-08,0.00247696,785.839
0.000247322,0.00906628,39.9839,1598.71,2.6294e-05,299.714,300.54,0.268458,-1.22189e-10,-1114.67,-5.60848e-08,0.00250053,785.843
0.000250959,0.00906725,39.9836,1598.69,2.62936e-05,299.71,300.546,0.268464,-1.22113e-10,-1113.34,-5.60497e-08,0.00253009,785.846
0.000254596,0.00906823,39.9833,1598.66,2.62931e-05,299.706,300.553,0.26847,-1.22037e-10,-1111.93,-5.60149e-08,0.00256364,785.85
0.000258233,0.0090692,39.983,1598.64,2.62927e-05,299.702,300.56,0.268477,-1.21961e-10,-1110.52,-5.59801e-08,0.00259717,785.854
0.000261871,0.00907018,39.9827,1598.62,2.62922e-05,299.698,300.567,0.268483,-1.21885e-10,-1109.11,-5.59454e-08,0.0026307,785.858
0.000265508,0.00907115,39.9824,1598.59,2.62918e-05,299.694,300.574,0.26849,-1.2181e-10,-1107.7,-5.59107e-08,0.00266421,785.862
0.000269145,0.00907213,39.9821,1598.57,2.62913e-05,299.69,300.581,0.268496,-1.21734e-10,-1106.29,-5.58761e-08,0.00269771,785.865
0.000272782,0.0090731,39.9818,1598.55,2.62909e-05,299.686,300.588,0.268503,-1.21659e-10,-1104.88,-5.58415e-08,0.0027312,785.869
0.000276419,0.00907407,39.9816,1598.53,2.62905e-05,299.682,300.595,0.268509,-1.21584e-10,-1103.48,-5.5807e-08,0.00276468,785.873
0.000280056,0.00907505,39.9813,1598.5,2.629e-05,299.678,300.602,0.268516,-1.21509e-10,-1102.07,-5.57726e-08,0.00279814,785.877
0.000283693,0.00907602,39.981,1598.48,2.62896e-05,299.673,300.609,0.268523,-1.21434e-10,-1100.67,-5.57381e-08,0.00283159,785.88
0.00028733,0.009077,39.9807,1598.46,2.62891e-05,299.669,300.616,0.268529,-1.21359e-10,-1099.27,-5.57038e-08,0.00286503,785.884
0.000290967,0.00907797,39.9804,1598.43,2.62887e-05,299.665,300.623,0.268536,-1.21284e-10,-1097.86,-5.56695e-08,0.00289846,785.888
0.000294604,0.00907895,39.9801,1598.41,2.62883e-05,299.662,300.63,0.268542,-1.2121e-10,-1096.46,-5.56352e-08,0.00293188,785.891
0.000298241,0.00907992,39.9798,1598.39,2.62878e-05,299.658,300.637,0.268549,-1.21135e-10,-1095.07,-5.5601e-08,0.00296528,785.895
0.000301879,0.0090809,39.9796,1598.36,2.62874e-05,299.654,300.644,0.268555,-1.21061e-10,-1093.67,-5.55668e-08,0.00299867,785.899
0.000305516,0.00908187,39.9793,1598.34,2.62869e-05,299.65,300.651,0.268562,-1.20986e-10,-1092.27,-5.55327e-08,0.00303205,785.903
0.000309153,0.00908285,39.979,1598.32,2.62865e-05,299.646,300.658,0.268568,-1.20912e-10,-1090.88,-5.54987e-08,0.00306542,785.906
0.00031279,0.00908382,39.9787,1598.3,2.6286e-05,299.642,300.665,0.268575,-1.20838e-10,-1089.48,-5.54647e-08,0.00309878,785.91
0.000316427,0.0090848,39.9784,1598.27,2.62856e-05,299.638,300.672,0.268582,-1.20764e-10,-1088.09,-5.54307e-08,0.00313212,785.914
0.000320064,0.00908577,39.9781,1598.25,2.62852e-05,299.634,300.679,0.268588,-1.2069e-10,-1086.7,-5.53968e-08,0.00316545,785.917
0.000323701,0.00908675,39.9778,1598.23,2.62847e-05,299.63,300.686,0.268595,-1.20616e-10,-1085.3,-5.53629e-08,0.00319877,785.921
0.000327338,0.00908772,39.9776,1598.2,2.62843e-05,299.626,300.693,0.268601,-1.20543e-10,-1083.91,-5.53291e-08,0.00323208,785.925
0.000330975,0.0090887,39.9773,1598.18,2.62839e-05,299.622,300.7,0.268608,-1.20469e-10,-1082.53,-5.52954e-08,0.00326537,785.928
0.000334612,0.00908967,39.977,1598.16,2.62834e-05,299.618,300.707,0.268614,-1.20396e-10,-1081.14,-5.52617e-08,0.00329866,785.932
0.000338249,0.00909065,39.9767,1598.14,2.6283e-05,299.614,300.714,0.268621,-1.20322e-10,-1079.75,-5.5228e-08,0.00333193,785.936
0.000341887,0.00909162,39.9764,1598.11,2.62825e-05,299.61,300.721,0.268628,-1.20249e-10,-1078.37,-5.51944e-08,0.00336519,785.939
0.000345524,0.0090926,39.9761,1598.09,2.62821e-05,299.606,300.728,0.268634,-1.20176e-10,-1076.98,-5.51608e-08,0.00339844,785.943
0.000349161,0.00909357,39.9759,1598.07,2.62817e-05,299.602,300.735,0.268641,-1.20103e-10,-1075.6,-5.51273e-08,0.00343167,785.947
0.000352798,0.00909454,39.9756,1598.05,2.62812e-05,299.598,300.742,0.268647,-1.2003e-10,-1074.22,-5.50939e-08,0.00346489,785.95
0.000356435,0.00909552,39.9753,1598.02,2.62808e-05,299.594,300.749,0.268654,-1.19957e-10,-1072.84,-5.50605e-08,0.00349811,785.954
0.000360072,0.00909649,39.975,1598,2.62804e-05,299.59,300.756,0.26866,-1.19885e-10,-1071.46,-5.50271e-08,0.0035313,785.958
0.000363709,0.00909747,39.9747,1597.98,2.62799e-05,299.587,300.763,0.268667,-1.19812e-10,-1070.08,-5.49938e-08,0.00356449,785.961
0.000367346,0.00909844,39.9744,1597.96,2.62795e-05,299.583,300.77,0.268673,-1.1974e-10,-1068.7,-5.49606e-08,0.00359767,785.965
0.000370983,0.00909942,39.9742,1597.93,2.6279e-05,299.579,300.777,0.26868,-1.19667e-10,-1067.33,-5.49274e-08,0.00363083,785.968
0.00037462,0.00910039,39.9739,1597.91,2.62786e-05,299.575,300.784,0.268687,-1.19595e-10,-1065.95,-5.48942e-08,0.00366398,785.972
0.000378257,0.00910137,39.9736,1597.89,2.62782e-05,299.571,300.791,0.268693,-1.19523e-10,-1064.58,-5.48611e-08,0.00369712,785.976
0.000381895,0.00910234,39.9733,1597.87,2.62777e-05,299.567,300.798,0.2687,-1.19451e-10,-1063.2,-5.4828e-08,0.00373025,785.979
0.000385532,0.00910332,39.973,1597.84,2.62773e-05,299.563,300.805,0.268706,-1.19379e-10,-1061.83,-5.4795e-08,0.00376336,785.983
0.000389169,0.00910429,39.9727,1597.82,2.62769e-05,299.559,300.812,0.268713,-1.19307e-10,-1060.46,-5.47621e-08,0.00379647,785.986
0.000392806,0.00910527,39.9725,1597.8,2.62764e-05,299.556,300.819,0.268719,-1.19236e-10,-1059.09,-5.47291e-08,0.00382956,785.99
0.000396443,0.00910624,39.9722,1597.78,2.6276e-05,299.552,300.826,0.268726,-1.19164e-10,-1057.72,-5.46963e-08,0.00386264,785.994
0.00040008,0.00910722,39.9719,1597.75,2.62756e-05,299.548,300.833,0.268733,-1.19093e-10,-1056.36,-5.46635e-08,0.00389571,785.997
0.000403717,0.00910819,39.9716,1597.73,2.62751e-05,299.544,300.84,0.268739,-1.19021e-10,-1054.99,-5.46307e-08,0.00392876,786.001
0.000407354,0.00910917,39.9713,1597.71,2.62747e-05,299.54,300.847,0.268746,-1.1895e-10,-1053.63,-5.4598e-08,0.00396181,786.004
0.000410991,0.00911014,39.9711,1597.69,2.62743e-05,299.536,300.854,0.268752,-1.18879e-10,-1052.26,-5.45653e-08,0.00399484,786.008
0.000414628,0.00911112,39.9708,1597.66,2.62738e-05,299.533,300.861,0.268759,-1.18808e-10,-1050.9,-5.45327e-08,0.00402786,786.011
0.000418265,0.00911209,39.9705,1597.64,2.62734e-05,299.529,300.868,0.268765,-1.18737e-10,-1049.54,-5.45001e-08,0.00406087,786.015
0.000421903,0.00911307,39.9702,1597.62,2.6273e-05,299.525,300.875,0.268772,-1.18666e-10,-1048.18,-5.44676e-08,0.00409386,786.019
0.00042554,0.00911404,39.9699,1597.6,2.62725e-05,299.521,300.882,0.268778,-1.18595e-10,-1046.82,-5.44351e-08,0.00412685,786.022
0.000429177,0.00911502,39.9697,1597.57,2.62721e-05,299.517,300.889,0.268785,-1.18524e-10,-1045.46,-5.44027e-08,0.00415982,786.026
0.000432814,0.00911599,39.9694,1597.55,2.62717e-05,299.514,300.895,0.268792,-1.18454e-10,-1044.1,-5.43703e-08,0.00419278,786.029
0.000436451,0.00911696,39.9691,1597.53,2.62713e-05,299.51,300.902,0.268798,-1.18383e-10,-1042.75,-5.4338e-08,0.00422573,786.033
0.000440088,0.00911794,39.9688,1597.51,2.62708e-05,299.506,300.909,0.268805,-1.18313e-10,-1041.39,-5.43057e-08,0.00425866,786.036
0.000443725,0.00911891,39.9686,1597.49,2.62704e-05,299.502,300.916,0.268811,-1.18243e-10,-1040.04,-5.42735e-08,0.00429159,786.04
0.000447362,0.00911989,39.9683,1597.46,2.627e-05,299.498,300.923,0.268818,-1.18173e-10,-1038.69,-5.42413e-08,0.0043245,786.043
0.000450999,0.00912086,39.968,1597.44,2.62695e-05,299.495,300.93,0.268824,-1.18103e-10,-1037.34,-5.42092e-08,0.0043574,786.047
0.000454636,0.00912184,39.9677,1597.42,2.62691e-05,299.491,300.937,0.268831,-1.18033e-10,-1035.99,-5.41771e-08,0.00439029,786.05
0.000458273,0.00912281,39.9674,1597.4,2.62687e-05,299.487,300.944,0.268837,-1.17963e-10,-1034.64,-5.41451e-08,0.00442317,786.054
0.000461911,0.00912379,39.9672,1597.37,2.62682e-05,299.483,300.951,0.268844,-1.17893e-10,-1033.29,-5.41131e-08,0.00445604,786.057
0.000465548,0.00912476,39.9669,1597.35,2.62678e-05,299.48,300.958,0.268851,-1.17824e-10,-1031.94,-5.40812e-08,0.00448889,786.061
0.000469185,0.00912574,39.9666,1597.33,2.62674e-05,299.476,300.965,0.268857,-1.17754e-10,-1030.6,-5.40493e-08,0.00452173,786.064
0.000472822,0.00912671,39.9663,1597.31,2.6267e-05,299.472,300.972,0.268864,-1.17685e-10,-1029.25,-5.40174e-08,0.00455456,786.068
0.000476459,0.00912769,39.9661,1597.29,2.62665e-05,299.468,300.979,0.26887,-1.17616e-10,-1027.91,-5.39856e-08,0.00458738,786.071
0.000480096,0.00912866,39.9658,1597.26,2.62661e-05,299.465,300.986,0.268877,-1.17547e-10,-1026.56,-5.39539e-08,0.00462019,786.075
0.000483733,0.00912964,39.9655,1597.24,2.62657e-05,299.461,300.993,0.268883,-1.17477e-10,-1025.22,-5.39222e-08,0.00465298,786.078
0.00048737,0.00913061,39.9652,1597.22,2.62653e-05,299.457,301,0.26889,-1.17409e-10,-1023.88,-5.38905e-08,0.00468577,786.082
0.000491007,0.00913159,39.965,1597.2,2.62648e-05,299.453,301.007,0.268897,-1.1734e-10,-1022.54,-5.38589e-08,0.00471854,786.085
0.000494644,0.00913256,39.9647,1597.18,2.62644e-05,299.45,301.014,0.268903,-1.17271e-10,-1021.21,-5.38273e-08,0.0047513,786.089
0.000498281,0.00913354,39.9644,1597.15,2.6264e-05,299.446,301.023,0.268911,-1.17203e-10,-1019.79,-5.3796e-08,0.00478801,786.092
0.000501919,0.00913451,39.9641,1597.13,2.62635e-05,299.442,301.036,0.268923,-1.17136e-10,-1018.05,-5.37655e-08,0.00483975,786.096
0.000505556,0.00913549,39.9639,1597.11,2.62631e-05,299.438,301.049,0.268935,-1.1707e-10,-1016.32,-5.3735e-08,0.00489147,786.099
0.000509193,0.00913646,39.9636,1597.09,2.62627e-05,299.435,301.062,0.268947,-1.17003e-10,-1014.59,-5.37045e-08,0.00494319,786.103
0.00051283,0.00913744,39.9633,1597.07,2.62623e-05,299.431,301.075,0.26896,-1.16937e-10,-1012.86,-5.36741e-08,0.0049949,786.106
0.000516467,0.00913841,39.963,1597.04,2.62618e-05,299.427,301.088,0.268972,-1.16871e-10,-1011.13,-5.36438e-08,0.0050466,786.109
0.000520104,0.00913939,39.9628,1597.02,2.62614e-05,299.424,301.102,0.268984,-1.16805e-10,-1009.41,-5.36136e-08,0.00509829,786.113
0.000523741,0.00914036,39.9625,1597,2.6261e-05,299.42,301.115,0.268996,-1.16739e-10,-1007.68,-5.35834e-08,0.00514996,786.116
0.000527378,0.00914134,39.9622,1596.98,2.62606e-05,299.416,301.128,0.269008,-1.16674e-10,-1005.96,-5.35532e-08,0.00520163,786.12
0.000531015,0.00914231,39.9619,1596.96,2.62601e-05,299.413,301.141,0.269021,-1.16608e-10,-1004.23,-5.35231e-08,0.00525329,786.123
0.000534652,0.00914329,39.9617,1596.94,2.62597e-05,299.409,301.154,0.269033,-1.16543e-10,-1002.51,-5.34931e-08,0.00530494,786.126
0.000538289,0.00914426,39.9614,1596.91,2.62593e-05,299.405,301.167,0.269045,-1.16477e-10,-1000.79,-5.34631e-08,0.00535658,786.13
0.000541927,0.00914524,39.9611,1596.89,2.62589e-05,299.402,301.181,0.269057,-1.16412e-10,-999.071,-5.34332e-08,0.00540822,786.133
0.000545564,0.00914621,39.9609,1596.87,2.62584e-05,299.398,301.194,0.26907,-1.16347e-10,-997.353,-5.34034e-08,0.00545984,786.137
0.000549201,0.00914719,39.9606,1596.85,2.6258e-05,299.395,301.207,0.269082,-1.16282e-10,-995.636,-5.33736e-08,0.00551145,786.14
0.000552838,0.00914816,39.9603,1596.83,2.62576e-05,299.391,301.22,0.269094,-1.16218e-10,-993.921,-5.33438e-08,0.00556305,786.143
0.000556475,0.00914914,39.96,1596.8,2.62572e-05,299.387,301.233,0.269106,-1.16153e-10,-992.207,-5.33142e-08,0.00561465,786.147
0.000560112,0.00915011,39.9598,1596.78,2.62568e-05,299.384,301.246,0.269118,-1.16088e-10,-990.493,-5.32845e-08,0.00566623,786.15
